# Distribution of neutrino fluxes in the AGSS09ph standard solar model model.
# 
# arxiv:0909.2668
#
# The cumulative neutrino fluxes from Table 1 of BPS08(GS) are given in the row below.
# 
# 6.01E+00 1.43E-02 8.10E-07 4.79E-01 5.22E-04 2.15E-02 1.55E-02 3.70E-04 
#
# 
# Columns in the Table below represent:
#
# 1) Radius of the zone in units of one solar radius
# 2) Temperature in units of 10^6 deg (K)
# 3) Logarithm (to the base 10) of the electron density in units of
#   cm^{-3}/N_A, where N_A is the Avogadro number
# 4) Mass of the zone with the given radius in units of one solar mass 
# 5) Fraction of pp neutrinos produced in the zone 
# 6) Fraction of pep neutrinos produced in the zone
# 7) Fraction of hep neutrinos produced in the zone
# 8) Fraction of beryllium 7 neutrinos produced in the zone
# 9) Fraction of boron 8 neutrinos produced in the zone
# 10) Fraction of nitrogen 13 neutrinos produced in the zone
# 11) Fraction of oxygen 15 neutrinos produced in the zone
# 12) Fraction of florine 17 neutrinos produced in the zone

0.0005 15.553 2.009  8.03563229e-08  5.149923e-04  8.068600e-04  2.137916e-04  2.525397e-03  6.317869e-03  3.810676e-03  5.299019e-03  5.833766e-03  
0.0010 15.553 2.009  8.03563229e-08  2.059096e-03  3.225488e-03  8.552358e-04  1.009249e-02  2.522480e-02  1.524734e-02  2.120386e-02  2.335413e-02  
0.0015 15.553 2.009  1.99900975e-07  4.632241e-03  7.255738e-03  1.924325e-03  2.269974e-02  5.671459e-02  3.430702e-02  4.771001e-02  5.255581e-02  
0.0020 15.552 2.009  4.94096572e-07  8.233864e-03  1.289614e-02  3.421165e-03  4.033558e-02  1.007358e-01  6.096048e-02  8.477639e-02  9.339150e-02  
0.0025 15.551 2.009  8.14471850e-07  1.286321e-02  2.014464e-02  5.345996e-03  6.298543e-02  1.572211e-01  9.516717e-02  1.323469e-01  1.457968e-01  
0.0030 15.550 2.009  1.21478988e-06  1.851933e-02  2.899874e-02  7.699081e-03  9.063082e-02  2.260864e-01  1.368770e-01  1.903519e-01  2.096918e-01  
0.0035 15.549 2.009  1.69502065e-06  2.520107e-02  3.945534e-02  1.048074e-02  1.232491e-01  3.072289e-01  1.860290e-01  2.587065e-01  2.849794e-01  
0.0040 15.548 2.009  2.25499412e-06  3.290706e-02  5.151082e-02  1.369135e-02  1.608137e-01  4.005276e-01  2.425515e-01  3.373110e-01  3.715457e-01  
0.0045 15.547 2.009  2.89457012e-06  4.163572e-02  6.516096e-02  1.733132e-02  2.032939e-01  5.058433e-01  3.063621e-01  4.260510e-01  4.692602e-01  
0.0050 15.545 2.009  3.61368993e-06  5.138526e-02  8.040104e-02  2.140117e-02  2.506548e-01  6.230195e-01  3.773686e-01  5.247982e-01  5.779764e-01  
0.0055 15.543 2.009  4.41221973e-06  6.215367e-02  9.722573e-02  2.590140e-02  3.028580e-01  7.518817e-01  4.554683e-01  6.334098e-01  6.975319e-01  
0.0060 15.541 2.009  5.28966919e-06  7.393873e-02  1.156292e-01  3.083262e-02  3.598605e-01  8.922384e-01  5.405489e-01  7.517294e-01  8.277486e-01  
0.0065 15.539 2.008  6.24625765e-06  8.673800e-02  1.356049e-01  3.619545e-02  4.216160e-01  1.043881e+00  6.324881e-01  8.795873e-01  9.684330e-01  
0.0070 15.537 2.008  7.28203014e-06  1.005488e-01  1.571460e-01  4.199057e-02  4.880738e-01  1.206585e+00  7.311543e-01  1.016800e+00  1.119376e+00  
0.0075 15.535 2.008  8.39484837e-06  1.153683e-01  1.802449e-01  4.821871e-02  5.591798e-01  1.380109e+00  8.364066e-01  1.163172e+00  1.280356e+00  
0.0080 15.532 2.008  9.58741551e-06  1.311935e-01  2.048936e-01  5.488065e-02  6.348759e-01  1.564196e+00  9.480951e-01  1.318495e+00  1.451133e+00  
0.0085 15.529 2.008  1.08576436e-05  1.480209e-01  2.310834e-01  6.197719e-02  7.151001e-01  1.758575e+00  1.066061e+00  1.482547e+00  1.631457e+00  
0.0090 15.527 2.008  1.22047385e-05  1.658470e-01  2.588050e-01  6.950915e-02  7.997869e-01  1.962957e+00  1.190136e+00  1.655096e+00  1.821062e+00  
0.0095 15.524 2.007  1.36322775e-05  1.846681e-01  2.880489e-01  7.747746e-02  8.888675e-01  2.177044e+00  1.320147e+00  1.835899e+00  2.019669e+00  
0.0100 15.520 2.007  1.51315400e-05  2.044803e-01  3.188047e-01  8.588302e-02  9.822689e-01  2.400520e+00  1.455908e+00  2.024700e+00  2.226989e+00  
0.0105 15.517 2.007  1.67116438e-05  2.252793e-01  3.510616e-01  9.472677e-02  1.079915e+00  2.633057e+00  1.597230e+00  2.221233e+00  2.442718e+00  
0.0110 15.513 2.007  1.83691548e-05  2.470607e-01  3.848082e-01  1.040097e-01  1.181726e+00  2.874315e+00  1.743914e+00  2.425223e+00  2.666542e+00  
0.0115 15.510 2.006  2.00975258e-05  2.698199e-01  4.200327e-01  1.137327e-01  1.287620e+00  3.123941e+00  1.895756e+00  2.636386e+00  2.898137e+00  
0.0120 15.506 2.006  2.19112593e-05  2.935518e-01  4.567225e-01  1.238970e-01  1.397509e+00  3.381572e+00  2.052544e+00  2.854428e+00  3.137167e+00  
0.0125 15.502 2.006  2.37906655e-05  3.182516e-01  4.948648e-01  1.345034e-01  1.511305e+00  3.646833e+00  2.214060e+00  3.079045e+00  3.383286e+00  
0.0130 15.498 2.006  2.57423331e-05  3.439137e-01  5.344460e-01  1.455531e-01  1.628914e+00  3.919339e+00  2.380083e+00  3.309929e+00  3.636142e+00  
0.0135 15.493 2.005  2.77800861e-05  3.705326e-01  5.754521e-01  1.570471e-01  1.750241e+00  4.198697e+00  2.550384e+00  3.546763e+00  3.895374e+00  
0.0140 15.489 2.005  2.98859890e-05  3.981024e-01  6.178685e-01  1.689864e-01  1.875188e+00  4.484502e+00  2.724727e+00  3.789218e+00  4.160608e+00  
0.0145 15.484 2.005  3.20660848e-05  4.266172e-01  6.616801e-01  1.813722e-01  2.003653e+00  4.776345e+00  2.902878e+00  4.036970e+00  4.431472e+00  
0.0150 15.480 2.004  3.43253877e-05  4.560707e-01  7.068713e-01  1.942054e-01  2.135531e+00  5.073809e+00  3.084596e+00  4.289680e+00  4.707581e+00  
0.0155 15.475 2.004  3.66376604e-05  4.864562e-01  7.534261e-01  2.074872e-01  2.270716e+00  5.376468e+00  3.269633e+00  4.547008e+00  4.988546e+00  
0.0160 15.469 2.004  3.90385562e-05  5.177671e-01  8.013279e-01  2.212186e-01  2.409099e+00  5.683892e+00  3.457744e+00  4.808610e+00  5.273976e+00  
0.0165 15.464 2.003  4.15036943e-05  5.499962e-01  8.505592e-01  2.354006e-01  2.550566e+00  5.995643e+00  3.648674e+00  5.074132e+00  5.563467e+00  
0.0170 15.459 2.003  4.40584758e-05  5.831364e-01  9.011029e-01  2.500343e-01  2.695005e+00  6.311283e+00  3.842173e+00  5.343226e+00  5.856622e+00  
0.0175 15.453 2.002  4.66375378e-05  6.171801e-01  9.529403e-01  2.651206e-01  2.842297e+00  6.630368e+00  4.037985e+00  5.615539e+00  6.153039e+00  
0.0180 15.447 2.002  4.93491145e-05  6.521195e-01  1.006053e+00  2.806604e-01  2.992325e+00  6.952452e+00  4.235854e+00  5.890711e+00  6.452307e+00  
0.0185 15.442 2.002  5.21085813e-05  6.879468e-01  1.060422e+00  2.966549e-01  3.144967e+00  7.277085e+00  4.435520e+00  6.168382e+00  6.754017e+00  
0.0190 15.435 2.001  5.48844334e-05  7.246536e-01  1.116028e+00  3.131046e-01  3.300102e+00  7.603819e+00  4.636731e+00  6.448202e+00  7.057772e+00  
0.0195 15.429 2.001  5.78129879e-05  7.622315e-01  1.172850e+00  3.300107e-01  3.457604e+00  7.932204e+00  4.839225e+00  6.729807e+00  7.363154e+00  
0.0200 15.423 2.000  6.07815789e-05  8.006716e-01  1.230868e+00  3.473739e-01  3.617346e+00  8.261788e+00  5.042744e+00  7.012836e+00  7.669755e+00  
0.0205 15.416 2.000  6.37805324e-05  8.399651e-01  1.290062e+00  3.651950e-01  3.779201e+00  8.592120e+00  5.247027e+00  7.296929e+00  7.977163e+00  
0.0210 15.410 1.999  6.68337956e-05  8.801026e-01  1.350408e+00  3.834746e-01  3.943040e+00  8.922753e+00  5.451823e+00  7.581735e+00  8.284980e+00  
0.0215 15.403 1.999  7.00362599e-05  9.210749e-01  1.411887e+00  4.022135e-01  4.108731e+00  9.253239e+00  5.656868e+00  7.866886e+00  8.592789e+00  
0.0220 15.396 1.998  7.31911598e-05  9.628717e-01  1.474475e+00  4.214121e-01  4.276144e+00  9.583142e+00  5.861926e+00  8.152057e+00  8.900221e+00  
0.0225 15.389 1.998  7.65287693e-05  1.005484e+00  1.538149e+00  4.410711e-01  4.445147e+00  9.912027e+00  6.066747e+00  8.436897e+00  9.206881e+00  
0.0230 15.382 1.997  7.99085081e-05  1.048900e+00  1.602886e+00  4.611908e-01  4.615603e+00  1.023945e+01  6.271065e+00  8.721039e+00  9.512347e+00  
0.0235 15.374 1.997  8.32480335e-05  1.093110e+00  1.668663e+00  4.817716e-01  4.787380e+00  1.056499e+01  6.474660e+00  9.004175e+00  9.816276e+00  
0.0240 15.367 1.996  8.67690038e-05  1.138104e+00  1.735456e+00  5.028139e-01  4.960342e+00  1.088822e+01  6.677274e+00  9.285947e+00  1.011826e+01  
0.0245 15.359 1.996  9.02865129e-05  1.183870e+00  1.803240e+00  5.243178e-01  5.134353e+00  1.120872e+01  6.878670e+00  9.566025e+00  1.041793e+01  
0.0250 15.351 1.995  9.39708298e-05  1.230397e+00  1.871991e+00  5.462835e-01  5.309277e+00  1.152610e+01  7.078621e+00  9.844094e+00  1.071492e+01  
0.0255 15.343 1.995  9.74355500e-05  1.277674e+00  1.941682e+00  5.687109e-01  5.484977e+00  1.183994e+01  7.276894e+00  1.011983e+01  1.100888e+01  
0.0260 15.335 1.994  1.01327271e-04  1.325689e+00  2.012289e+00  5.916000e-01  5.661319e+00  1.214986e+01  7.473274e+00  1.039293e+01  1.129946e+01  
0.0265 15.327 1.994  1.05068372e-04  1.374429e+00  2.083786e+00  6.149506e-01  5.838162e+00  1.245546e+01  7.667526e+00  1.066308e+01  1.158630e+01  
0.0270 15.318 1.993  1.08938699e-04  1.423884e+00  2.156146e+00  6.387626e-01  6.015372e+00  1.275638e+01  7.859437e+00  1.092996e+01  1.186907e+01  
0.0275 15.310 1.992  1.12620884e-04  1.474039e+00  2.229343e+00  6.630352e-01  6.192810e+00  1.305226e+01  8.048807e+00  1.119332e+01  1.214745e+01  
0.0280 15.301 1.992  1.16707321e-04  1.524883e+00  2.303349e+00  6.877683e-01  6.370346e+00  1.334274e+01  8.235437e+00  1.145286e+01  1.242114e+01  
0.0285 15.292 1.991  1.20886295e-04  1.576402e+00  2.378139e+00  7.129610e-01  6.547840e+00  1.362747e+01  8.419107e+00  1.170829e+01  1.268980e+01  
0.0290 15.283 1.991  1.24803110e-04  1.628584e+00  2.453683e+00  7.386124e-01  6.725159e+00  1.390613e+01  8.599666e+00  1.195939e+01  1.295319e+01  
0.0295 15.274 1.990  1.28930424e-04  1.681414e+00  2.529954e+00  7.647221e-01  6.902172e+00  1.417842e+01  8.776912e+00  1.220589e+01  1.321101e+01  
0.0300 15.265 1.989  1.33009981e-04  1.734880e+00  2.606924e+00  7.912885e-01  7.078744e+00  1.444401e+01  8.950675e+00  1.244754e+01  1.346299e+01  
0.0305 15.255 1.989  1.37489325e-04  1.788968e+00  2.684565e+00  8.183111e-01  7.254740e+00  1.470261e+01  9.120746e+00  1.268406e+01  1.370881e+01  
0.0310 15.246 1.988  1.41426243e-04  1.843662e+00  2.762847e+00  8.457883e-01  7.430025e+00  1.495393e+01  9.286974e+00  1.291523e+01  1.394824e+01  
0.0315 15.236 1.987  1.45857700e-04  1.898950e+00  2.841743e+00  8.737183e-01  7.604489e+00  1.519775e+01  9.449271e+00  1.314094e+01  1.418116e+01  
0.0320 15.226 1.987  1.50545602e-04  1.954817e+00  2.921224e+00  9.021003e-01  7.777987e+00  1.543377e+01  9.607392e+00  1.336084e+01  1.440718e+01  
0.0325 15.216 1.986  1.54566221e-04  2.011246e+00  3.001257e+00  9.309317e-01  7.950388e+00  1.566176e+01  9.761224e+00  1.357477e+01  1.462614e+01  
0.0330 15.206 1.985  1.59152189e-04  2.068225e+00  3.081816e+00  9.602111e-01  8.121593e+00  1.588153e+01  9.910720e+00  1.378268e+01  1.483800e+01  
0.0335 15.196 1.984  1.63605994e-04  2.125737e+00  3.162871e+00  9.899364e-01  8.291466e+00  1.609286e+01  1.005568e+01  1.398428e+01  1.504243e+01  
0.0340 15.186 1.984  1.68398045e-04  2.183768e+00  3.244391e+00  1.020106e+00  8.459874e+00  1.629552e+01  1.019594e+01  1.417934e+01  1.523917e+01  
0.0345 15.175 1.983  1.72814261e-04  2.242300e+00  3.326346e+00  1.050716e+00  8.626706e+00  1.648935e+01  1.033143e+01  1.436777e+01  1.542816e+01  
0.0350 15.165 1.982  1.77808578e-04  2.301321e+00  3.408707e+00  1.081766e+00  8.791855e+00  1.667420e+01  1.046208e+01  1.454946e+01  1.560927e+01  
0.0355 15.154 1.981  1.82125700e-04  2.360811e+00  3.491442e+00  1.113252e+00  8.955197e+00  1.684991e+01  1.058777e+01  1.472426e+01  1.578237e+01  
0.0360 15.143 1.981  1.87319357e-04  2.420757e+00  3.574523e+00  1.145171e+00  9.116628e+00  1.701636e+01  1.070843e+01  1.489207e+01  1.594733e+01  
0.0365 15.132 1.980  1.91945694e-04  2.481142e+00  3.657917e+00  1.177520e+00  9.276022e+00  1.717339e+01  1.082390e+01  1.505267e+01  1.610394e+01  
0.0370 15.121 1.979  1.96187306e-04  2.541947e+00  3.741594e+00  1.210297e+00  9.433291e+00  1.732095e+01  1.093425e+01  1.520613e+01  1.625230e+01  
0.0375 15.110 1.978  2.01627076e-04  2.603159e+00  3.825524e+00  1.243498e+00  9.588325e+00  1.745892e+01  1.103934e+01  1.535228e+01  1.639222e+01  
0.0380 15.098 1.978  2.06628302e-04  2.664759e+00  3.909677e+00  1.277118e+00  9.741030e+00  1.758725e+01  1.113914e+01  1.549108e+01  1.652369e+01  
0.0385 15.087 1.977  2.11465964e-04  2.726730e+00  3.994021e+00  1.311155e+00  9.891293e+00  1.770586e+01  1.123355e+01  1.562239e+01  1.664656e+01  
0.0390 15.075 1.976  2.16598535e-04  2.789057e+00  4.078527e+00  1.345606e+00  1.003902e+01  1.781468e+01  1.132254e+01  1.574616e+01  1.676078e+01  
0.0395 15.063 1.975  2.21026487e-04  2.851721e+00  4.163161e+00  1.380465e+00  1.018413e+01  1.791374e+01  1.140613e+01  1.586241e+01  1.686643e+01  
0.0400 15.052 1.974  2.26905799e-04  2.914705e+00  4.247895e+00  1.415729e+00  1.032651e+01  1.800294e+01  1.148417e+01  1.597095e+01  1.696327e+01  
0.0405 15.040 1.974  2.31478474e-04  2.977992e+00  4.332698e+00  1.451393e+00  1.046609e+01  1.808235e+01  1.155678e+01  1.607194e+01  1.705154e+01  
0.0410 15.028 1.973  2.37329597e-04  3.041564e+00  4.417540e+00  1.487454e+00  1.060280e+01  1.815198e+01  1.162393e+01  1.616533e+01  1.713120e+01  
0.0415 15.015 1.972  2.42343637e-04  3.105403e+00  4.502388e+00  1.523905e+00  1.073653e+01  1.821179e+01  1.168552e+01  1.625099e+01  1.720211e+01  
0.0420 15.003 1.971  2.46853474e-04  3.169490e+00  4.587212e+00  1.560742e+00  1.086723e+01  1.826190e+01  1.174165e+01  1.632907e+01  1.726446e+01  
0.0425 14.991 1.970  2.53642056e-04  3.233811e+00  4.671983e+00  1.597961e+00  1.099478e+01  1.830223e+01  1.179214e+01  1.639930e+01  1.731797e+01  
0.0430 14.978 1.969  2.57349406e-04  3.298340e+00  4.756662e+00  1.635554e+00  1.111914e+01  1.833297e+01  1.183721e+01  1.646199e+01  1.736304e+01  
0.0435 14.965 1.968  2.63266906e-04  3.363064e+00  4.841224e+00  1.673517e+00  1.124025e+01  1.835415e+01  1.187686e+01  1.651715e+01  1.739968e+01  
0.0440 14.953 1.967  2.68690744e-04  3.427963e+00  4.925637e+00  1.711843e+00  1.135803e+01  1.836584e+01  1.191102e+01  1.656466e+01  1.742779e+01  
0.0445 14.940 1.967  2.73530715e-04  3.493018e+00  5.009869e+00  1.750528e+00  1.147241e+01  1.836817e+01  1.193976e+01  1.660465e+01  1.744753e+01  
0.0450 14.927 1.966  2.79137642e-04  3.558211e+00  5.093894e+00  1.789564e+00  1.158337e+01  1.836126e+01  1.196324e+01  1.663733e+01  1.745917e+01  
0.0455 14.914 1.965  2.85352940e-04  3.623526e+00  5.177682e+00  1.828946e+00  1.169083e+01  1.834519e+01  1.198134e+01  1.666252e+01  1.746253e+01  
0.0460 14.900 1.964  2.91854783e-04  3.688947e+00  5.261208e+00  1.868671e+00  1.179473e+01  1.832002e+01  1.199403e+01  1.668019e+01  1.745758e+01  
0.0465 14.887 1.963  2.94201750e-04  3.754440e+00  5.344419e+00  1.908726e+00  1.189501e+01  1.828605e+01  1.200153e+01  1.669062e+01  1.744470e+01  
0.0470 14.874 1.962  3.03102708e-04  3.820006e+00  5.427316e+00  1.949110e+00  1.199167e+01  1.824329e+01  1.200382e+01  1.669383e+01  1.742389e+01  
0.0475 14.860 1.961  3.05783597e-04  3.885611e+00  5.509849e+00  1.989810e+00  1.208466e+01  1.819206e+01  1.200116e+01  1.669015e+01  1.739561e+01  
0.0480 14.846 1.960  3.11866634e-04  3.951243e+00  5.591997e+00  2.030823e+00  1.217395e+01  1.813247e+01  1.199352e+01  1.667956e+01  1.735983e+01  
0.0485 14.833 1.959  3.19632781e-04  4.016889e+00  5.673741e+00  2.072143e+00  1.225950e+01  1.806459e+01  1.198088e+01  1.666199e+01  1.731647e+01  
0.0490 14.819 1.958  3.24124919e-04  4.082522e+00  5.755038e+00  2.113761e+00  1.234125e+01  1.798867e+01  1.196329e+01  1.663756e+01  1.726570e+01  
0.0495 14.805 1.957  3.29201696e-04  4.148122e+00  5.835860e+00  2.155667e+00  1.241920e+01  1.790496e+01  1.194095e+01  1.660652e+01  1.720784e+01  
0.0500 14.791 1.956  3.34915099e-04  4.213675e+00  5.916188e+00  2.197856e+00  1.249336e+01  1.781363e+01  1.191402e+01  1.656908e+01  1.714317e+01  
0.0505 14.777 1.955  3.40284368e-04  4.279161e+00  5.995993e+00  2.240319e+00  1.256370e+01  1.771491e+01  1.188258e+01  1.652539e+01  1.707185e+01  
0.0510 14.762 1.954  3.48090753e-04  4.344569e+00  6.075254e+00  2.283053e+00  1.263017e+01  1.760886e+01  1.184653e+01  1.647529e+01  1.699370e+01  
0.0515 14.748 1.953  3.51645969e-04  4.409865e+00  6.153923e+00  2.326043e+00  1.269275e+01  1.749587e+01  1.180604e+01  1.641900e+01  1.690904e+01  
0.0520 14.734 1.952  3.60150534e-04  4.475051e+00  6.232004e+00  2.369291e+00  1.275145e+01  1.737589e+01  1.176113e+01  1.635657e+01  1.681793e+01  
0.0525 14.719 1.951  3.62998904e-04  4.540082e+00  6.309435e+00  2.412774e+00  1.280626e+01  1.724953e+01  1.171208e+01  1.628839e+01  1.672084e+01  
0.0530 14.704 1.950  3.70282380e-04  4.604964e+00  6.386223e+00  2.456495e+00  1.285719e+01  1.711673e+01  1.165885e+01  1.621440e+01  1.661768e+01  
0.0535 14.690 1.949  3.75202812e-04  4.669662e+00  6.462322e+00  2.500439e+00  1.290426e+01  1.697792e+01  1.160170e+01  1.613494e+01  1.650890e+01  
0.0540 14.675 1.948  3.80958567e-04  4.734167e+00  6.537721e+00  2.544599e+00  1.294748e+01  1.683324e+01  1.154072e+01  1.605018e+01  1.639469e+01  
0.0545 14.660 1.947  3.86321994e-04  4.798457e+00  6.612389e+00  2.588966e+00  1.298685e+01  1.668297e+01  1.147604e+01  1.596026e+01  1.627523e+01  
0.0550 14.645 1.946  3.93351600e-04  4.862518e+00  6.686307e+00  2.633532e+00  1.302237e+01  1.652728e+01  1.140770e+01  1.586526e+01  1.615063e+01  
0.0555 14.630 1.945  4.01958633e-04  4.926340e+00  6.759457e+00  2.678296e+00  1.305399e+01  1.636622e+01  1.133566e+01  1.576511e+01  1.602083e+01  
0.0560 14.615 1.944  4.03189686e-04  4.989881e+00  6.831790e+00  2.723232e+00  1.308181e+01  1.620047e+01  1.126027e+01  1.566030e+01  1.588639e+01  
0.0565 14.599 1.943  4.12272451e-04  5.053148e+00  6.903315e+00  2.768346e+00  1.310583e+01  1.602990e+01  1.118144e+01  1.555070e+01  1.574718e+01  
0.0570 14.584 1.942  4.14941984e-04  5.116105e+00  6.973987e+00  2.813617e+00  1.312608e+01  1.585505e+01  1.109950e+01  1.543679e+01  1.560375e+01  
0.0575 14.568 1.941  4.23987706e-04  5.178752e+00  7.043804e+00  2.859046e+00  1.314258e+01  1.567592e+01  1.101449e+01  1.531860e+01  1.545618e+01  
0.0580 14.553 1.940  4.28925638e-04  5.241061e+00  7.112734e+00  2.904616e+00  1.315536e+01  1.549286e+01  1.092652e+01  1.519631e+01  1.530465e+01  
0.0585 14.537 1.938  4.33545366e-04  5.303016e+00  7.180755e+00  2.950319e+00  1.316444e+01  1.530613e+01  1.083574e+01  1.507010e+01  1.514939e+01  
0.0590 14.522 1.937  4.41819988e-04  5.364605e+00  7.247856e+00  2.996149e+00  1.316986e+01  1.511587e+01  1.074223e+01  1.494010e+01  1.499055e+01  
0.0595 14.506 1.936  4.47049039e-04  5.425808e+00  7.314011e+00  3.042094e+00  1.317165e+01  1.492238e+01  1.064614e+01  1.480650e+01  1.482837e+01  
0.0600 14.490 1.935  4.52963551e-04  5.486609e+00  7.379202e+00  3.088143e+00  1.316985e+01  1.472589e+01  1.054756e+01  1.466946e+01  1.466302e+01  
0.0605 14.474 1.934  4.59352491e-04  5.546992e+00  7.443409e+00  3.134288e+00  1.316449e+01  1.452660e+01  1.044657e+01  1.452905e+01  1.449459e+01  
0.0610 14.458 1.933  4.64646468e-04  5.606939e+00  7.506614e+00  3.180517e+00  1.315561e+01  1.432478e+01  1.034334e+01  1.438553e+01  1.432338e+01  
0.0615 14.442 1.932  4.70569041e-04  5.666437e+00  7.568805e+00  3.226823e+00  1.314329e+01  1.412066e+01  1.023805e+01  1.423916e+01  1.414969e+01  
0.0620 14.426 1.931  4.77618658e-04  5.725469e+00  7.629959e+00  3.273193e+00  1.312753e+01  1.391440e+01  1.013069e+01  1.408990e+01  1.397349e+01  
0.0625 14.409 1.929  4.82553095e-04  5.784020e+00  7.690064e+00  3.319619e+00  1.310842e+01  1.370631e+01  1.002150e+01  1.393810e+01  1.379517e+01  
0.0630 14.393 1.928  4.91064240e-04  5.842078e+00  7.749104e+00  3.366094e+00  1.308595e+01  1.349646e+01  9.910414e+00  1.378366e+01  1.361461e+01  
