# Thermal sigma v for some different final states
# The final states are:
# Case 1: PDG = 12
# Case 2: PDG = 15
# Case 3: PDG =  6
# Case 4: PDG = 24
#  i     Mass [GeV]      sigvmid_1     sigvperr_1     sigvmerr_1      sigvmid_2     sigvperr_2     sigvmerr_2      sigvmid_3     sigvperr_3     sigvmerr_3      sigvmid_4     sigvperr_4     sigvmerr_4, sigv in units of cm^3/s^1
   1   0.100000E-02   0.299262E-24   0.916572E-26  -0.700858E-26   0.299271E-24   0.911223E-26  -0.701025E-26   0.299281E-24   0.911432E-26  -0.700880E-26   0.299242E-24   0.915144E-26  -0.696009E-26
   2   0.150000E-02   0.294766E-24   0.906773E-26  -0.695179E-26   0.294781E-24   0.904120E-26  -0.697770E-26   0.294769E-24   0.904085E-26  -0.697743E-26   0.294758E-24   0.910421E-26  -0.692826E-26
   3   0.225000E-02   0.265465E-24   0.826099E-26  -0.630618E-26   0.265512E-24   0.825560E-26  -0.635419E-26   0.265456E-24   0.830711E-26  -0.630592E-26   0.265452E-24   0.830699E-26  -0.630583E-26
   4   0.337500E-02   0.235568E-24   0.724986E-26  -0.559458E-26   0.235531E-24   0.729203E-26  -0.551984E-26   0.235547E-24   0.724599E-26  -0.555518E-26   0.235559E-24   0.726591E-26  -0.557587E-26
   5   0.506250E-02   0.226315E-24   0.688436E-26  -0.526426E-26   0.226311E-24   0.688291E-26  -0.526251E-26   0.226344E-24   0.683338E-26  -0.531990E-26   0.226329E-24   0.686335E-26  -0.528198E-26
   6   0.759375E-02   0.229781E-24   0.695144E-26  -0.530520E-26   0.229782E-24   0.693124E-26  -0.532443E-26   0.229802E-24   0.691202E-26  -0.530570E-26   0.229805E-24   0.691211E-26  -0.530577E-26
   7   0.113906E-01   0.238689E-24   0.713768E-26  -0.551088E-26   0.238680E-24   0.717446E-26  -0.547252E-26   0.238707E-24   0.713682E-26  -0.551263E-26   0.238697E-24   0.713651E-26  -0.551239E-26
   8   0.170859E-01   0.249952E-24   0.749282E-26  -0.568963E-26   0.249972E-24   0.747030E-26  -0.573141E-26   0.249970E-24   0.747026E-26  -0.573138E-26   0.249969E-24   0.747021E-26  -0.573135E-26
   9   0.256289E-01   0.262277E-24   0.779233E-26  -0.601356E-26   0.262274E-24   0.779376E-26  -0.601203E-26   0.262272E-24   0.779370E-26  -0.601199E-26   0.262270E-24   0.779365E-26  -0.601195E-26
  10   0.384434E-01   0.275001E-24   0.819726E-26  -0.625828E-26   0.275025E-24   0.814998E-26  -0.625884E-26   0.275044E-24   0.816842E-26  -0.630933E-26   0.274991E-24   0.819538E-26  -0.625957E-26
  11   0.576650E-01   0.288215E-24   0.852923E-26  -0.657009E-26   0.288224E-24   0.853611E-26  -0.656395E-26   0.288190E-24   0.854008E-26  -0.655842E-26   0.288209E-24   0.853567E-26  -0.656362E-26
  12   0.864976E-01   0.301508E-24   0.893300E-26  -0.686316E-26   0.301526E-24   0.887744E-26  -0.686690E-26   0.301497E-24   0.892922E-26  -0.686623E-26   0.301512E-24   0.892967E-26  -0.686659E-26
  13   0.129746E+00   0.315158E-24   0.928422E-26  -0.717215E-26   0.315132E-24   0.930415E-26  -0.712459E-26   0.315127E-24   0.930400E-26  -0.712447E-26   0.315122E-24   0.935876E-26  -0.712435E-26
  14   0.194620E+00   0.328907E-24   0.968818E-26  -0.745757E-26   0.328880E-24   0.965274E-26  -0.743540E-26   0.328872E-24   0.971548E-26  -0.742985E-26   0.328872E-24   0.970982E-26  -0.743523E-26
  15   0.291929E+00   0.340767E-24   0.100055E-25  -0.770043E-26   0.340762E-24   0.100074E-25  -0.769847E-26   0.340760E-24   0.100073E-25  -0.769842E-26   0.340758E-24   0.100072E-25  -0.769836E-26
  16   0.437894E+00   0.343652E-24   0.101836E-25  -0.782060E-26   0.343675E-24   0.101184E-25  -0.782680E-26   0.343642E-24   0.101459E-25  -0.776915E-26   0.343636E-24   0.101457E-25  -0.776902E-26
  17   0.656841E+00   0.335640E-24   0.988761E-26  -0.763827E-26   0.335613E-24   0.990884E-26  -0.758762E-26   0.335607E-24   0.990867E-26  -0.758749E-26   0.335602E-24   0.996699E-26  -0.758737E-26
  18   0.985261E+00   0.327114E-24   0.966221E-26  -0.734132E-26   0.327110E-24   0.966210E-26  -0.734124E-26   0.327107E-24   0.966200E-26  -0.734115E-26   0.327103E-24   0.966189E-26  -0.734107E-26
  19   0.147789E+01   0.321554E-24   0.944325E-26  -0.726451E-26   0.321551E-24   0.944318E-26  -0.726446E-26   0.321549E-24   0.944311E-26  -0.726440E-26   0.321547E-24   0.944305E-26  -0.726435E-26
  20   0.150745E+01   0.321272E-24   0.941171E-26  -0.723109E-26   0.321250E-24   0.943433E-26  -0.725764E-26   0.321248E-24   0.943426E-26  -0.725759E-26   0.321245E-24   0.943836E-26  -0.720439E-26
  21   0.153760E+01   0.320978E-24   0.945902E-26  -0.722445E-26   0.320953E-24   0.948022E-26  -0.720304E-26   0.320949E-24   0.948012E-26  -0.720296E-26   0.320946E-24   0.948001E-26  -0.720288E-26
  22   0.156835E+01   0.320670E-24   0.941731E-26  -0.724455E-26   0.320668E-24   0.941725E-26  -0.724450E-26   0.320666E-24   0.941718E-26  -0.724445E-26   0.320664E-24   0.941711E-26  -0.724440E-26
  23   0.159972E+01   0.320336E-24   0.940749E-26  -0.723699E-26   0.320334E-24   0.946741E-26  -0.718394E-26   0.320335E-24   0.940195E-26  -0.724223E-26   0.320328E-24   0.940725E-26  -0.723681E-26
  24   0.163171E+01   0.320000E-24   0.939763E-26  -0.722941E-26   0.319998E-24   0.939756E-26  -0.722936E-26   0.319996E-24   0.939750E-26  -0.722931E-26   0.319993E-24   0.939743E-26  -0.722926E-26
  25   0.166435E+01   0.319612E-24   0.938440E-26  -0.722239E-26   0.319608E-24   0.938611E-26  -0.722055E-26   0.319606E-24   0.938605E-26  -0.722050E-26   0.319604E-24   0.939013E-26  -0.716757E-26
  26   0.169763E+01   0.319229E-24   0.934661E-26  -0.726656E-26   0.319253E-24   0.934732E-26  -0.726711E-26   0.319169E-24   0.942755E-26  -0.716302E-26   0.319166E-24   0.942745E-26  -0.716294E-26
  27   0.173159E+01   0.318730E-24   0.941458E-26  -0.715317E-26   0.318727E-24   0.941448E-26  -0.715309E-26   0.318723E-24   0.941437E-26  -0.715301E-26   0.318720E-24   0.941427E-26  -0.715293E-26
  28   0.176622E+01   0.318285E-24   0.934177E-26  -0.719587E-26   0.318277E-24   0.934703E-26  -0.719049E-26   0.318275E-24   0.934697E-26  -0.719044E-26   0.318273E-24   0.934690E-26  -0.719039E-26
  29   0.180154E+01   0.317786E-24   0.930070E-26  -0.723720E-26   0.317753E-24   0.933163E-26  -0.717864E-26   0.317750E-24   0.933156E-26  -0.717859E-26   0.317748E-24   0.933149E-26  -0.717854E-26
  30   0.183757E+01   0.317208E-24   0.931564E-26  -0.716634E-26   0.317206E-24   0.931558E-26  -0.716629E-26   0.317204E-24   0.931551E-26  -0.716624E-26   0.317202E-24   0.931545E-26  -0.716619E-26
  31   0.187432E+01   0.316609E-24   0.929623E-26  -0.715453E-26   0.316605E-24   0.929793E-26  -0.715272E-26   0.316603E-24   0.929786E-26  -0.715267E-26   0.316601E-24   0.935297E-26  -0.715261E-26
  32   0.191181E+01   0.315958E-24   0.932551E-26  -0.709780E-26   0.315948E-24   0.933239E-26  -0.709072E-26   0.315998E-24   0.925383E-26  -0.719127E-26   0.315970E-24   0.933434E-26  -0.713837E-26
  33   0.195005E+01   0.315329E-24   0.924778E-26  -0.713592E-26   0.315314E-24   0.926002E-26  -0.712355E-26   0.315312E-24   0.925996E-26  -0.712350E-26   0.315310E-24   0.925989E-26  -0.712345E-26
  34   0.198905E+01   0.314615E-24   0.925554E-26  -0.717189E-26   0.314577E-24   0.928776E-26  -0.711204E-26   0.314572E-24   0.928760E-26  -0.711192E-26   0.314566E-24   0.928745E-26  -0.711180E-26
  35   0.202883E+01   0.313817E-24   0.926891E-26  -0.709142E-26   0.313815E-24   0.926526E-26  -0.709481E-26   0.313810E-24   0.926510E-26  -0.709469E-26   0.313804E-24   0.926495E-26  -0.709457E-26
  36   0.206941E+01   0.313003E-24   0.924669E-26  -0.707134E-26   0.313003E-24   0.924130E-26  -0.707646E-26   0.312998E-24   0.924115E-26  -0.707634E-26   0.312993E-24   0.924099E-26  -0.707622E-26
  37   0.211079E+01   0.312141E-24   0.921584E-26  -0.705697E-26   0.312136E-24   0.921569E-26  -0.705685E-26   0.312131E-24   0.921554E-26  -0.705673E-26   0.312126E-24   0.921538E-26  -0.705661E-26
  38   0.215301E+01   0.311223E-24   0.916833E-26  -0.708261E-26   0.311198E-24   0.918801E-26  -0.703565E-26   0.311193E-24   0.918786E-26  -0.703554E-26   0.311188E-24   0.918770E-26  -0.703542E-26
  39   0.322951E+01   0.250523E-24   0.770669E-26  -0.590834E-26   0.250535E-24   0.768414E-26  -0.593037E-26   0.250525E-24   0.769425E-26  -0.588857E-26   0.250513E-24   0.770639E-26  -0.590812E-26
  40   0.484427E+01   0.186409E-24   0.554887E-26  -0.424947E-26   0.186387E-24   0.558732E-26  -0.424269E-26   0.186401E-24   0.555520E-26  -0.424302E-26   0.186417E-24   0.553958E-26  -0.427318E-26
  41   0.726641E+01   0.171487E-24   0.506730E-26  -0.384678E-26   0.171487E-24   0.506535E-26  -0.384864E-26   0.171514E-24   0.505264E-26  -0.390321E-26   0.171501E-24   0.506349E-26  -0.387733E-26
  42   0.108996E+02   0.166323E-24   0.488667E-26  -0.373004E-26   0.166325E-24   0.488673E-26  -0.373009E-26   0.166327E-24   0.488679E-26  -0.373013E-26   0.166330E-24   0.485787E-26  -0.373018E-26
  43   0.163494E+02   0.164627E-24   0.480721E-26  -0.369291E-26   0.164611E-24   0.480674E-26  -0.369254E-26   0.164623E-24   0.480802E-26  -0.369191E-26   0.164608E-24   0.480664E-26  -0.369246E-26
  44   0.245241E+02   0.164675E-24   0.480955E-26  -0.369309E-26   0.164688E-24   0.480992E-26  -0.369337E-26   0.164673E-24   0.480854E-26  -0.369392E-26   0.164685E-24   0.480982E-26  -0.369329E-26
  45   0.367862E+02   0.165820E-24   0.484299E-26  -0.371876E-26   0.165805E-24   0.483946E-26  -0.369187E-26   0.165832E-24   0.481444E-26  -0.371902E-26   0.165806E-24   0.483950E-26  -0.369189E-26
  46   0.551793E+02   0.168407E-24   0.488609E-26  -0.374981E-26   0.168405E-24   0.488698E-26  -0.374886E-26   0.168404E-24   0.488694E-26  -0.374884E-26   0.168403E-24   0.488691E-26  -0.374881E-26
  47   0.562829E+02   0.168573E-24   0.489184E-26  -0.375259E-26   0.168572E-24   0.489181E-26  -0.375257E-26   0.168571E-24   0.489177E-26  -0.375254E-26   0.168569E-24   0.489174E-26  -0.375252E-26
  48   0.574085E+02   0.168739E-24   0.489668E-26  -0.375630E-26   0.168738E-24   0.489664E-26  -0.375628E-26   0.168737E-24   0.489661E-26  -0.375625E-26   0.168736E-24   0.489658E-26  -0.375622E-26
  49   0.585567E+02   0.168906E-24   0.490152E-26  -0.376002E-26   0.168905E-24   0.490148E-26  -0.375999E-26   0.168904E-24   0.490145E-26  -0.375996E-26   0.168903E-24   0.490141E-26  -0.375994E-26
  50   0.597278E+02   0.169102E-24   0.487895E-26  -0.379327E-26   0.169102E-24   0.487317E-26  -0.379876E-26   0.169096E-24   0.490034E-26  -0.377061E-26   0.169089E-24   0.490681E-26  -0.376407E-26
  51   0.609224E+02   0.169259E-24   0.491176E-26  -0.376787E-26   0.169258E-24   0.491173E-26  -0.376785E-26   0.169257E-24   0.491169E-26  -0.376782E-26   0.169284E-24   0.487843E-26  -0.380286E-26
  52   0.621408E+02   0.169451E-24   0.491636E-26  -0.377305E-26   0.169449E-24   0.491726E-26  -0.377209E-26   0.169447E-24   0.491722E-26  -0.377206E-26   0.169446E-24   0.491719E-26  -0.377204E-26
  53   0.633836E+02   0.169646E-24   0.489465E-26  -0.380548E-26   0.169646E-24   0.488886E-26  -0.381099E-26   0.169640E-24   0.491611E-26  -0.378274E-26   0.169633E-24   0.492260E-26  -0.377619E-26
  54   0.646513E+02   0.169833E-24   0.490004E-26  -0.380966E-26   0.169833E-24   0.489424E-26  -0.381518E-26   0.169827E-24   0.492152E-26  -0.378690E-26   0.169819E-24   0.492801E-26  -0.378034E-26
  55   0.659443E+02   0.170020E-24   0.490543E-26  -0.381385E-26   0.170020E-24   0.492709E-26  -0.379119E-26   0.170012E-24   0.493360E-26  -0.378463E-26   0.170011E-24   0.493356E-26  -0.378460E-26
  56   0.672632E+02   0.170211E-24   0.491095E-26  -0.381815E-26   0.170211E-24   0.493264E-26  -0.379546E-26   0.170203E-24   0.493916E-26  -0.378889E-26   0.170202E-24   0.493912E-26  -0.378886E-26
  57   0.686085E+02   0.170403E-24   0.494398E-26  -0.379424E-26   0.170401E-24   0.494488E-26  -0.379328E-26   0.170399E-24   0.494485E-26  -0.379325E-26   0.170398E-24   0.494481E-26  -0.379323E-26
  58   0.699807E+02   0.170599E-24   0.494968E-26  -0.379862E-26   0.170597E-24   0.495058E-26  -0.379765E-26   0.170596E-24   0.495055E-26  -0.379763E-26   0.170595E-24   0.495051E-26  -0.379760E-26
  59   0.713803E+02   0.170796E-24   0.495538E-26  -0.380299E-26   0.170794E-24   0.495629E-26  -0.380203E-26   0.170792E-24   0.495625E-26  -0.380200E-26   0.170791E-24   0.495622E-26  -0.380198E-26
  60   0.728079E+02   0.170993E-24   0.496767E-26  -0.377907E-26   0.170998E-24   0.496222E-26  -0.380658E-26   0.170997E-24   0.496218E-26  -0.380655E-26   0.171025E-24   0.492858E-26  -0.384195E-26
  61   0.742640E+02   0.171193E-24   0.497348E-26  -0.378349E-26   0.171227E-24   0.496209E-26  -0.381812E-26   0.171190E-24   0.497341E-26  -0.378344E-26   0.171225E-24   0.496202E-26  -0.381807E-26
  62   0.757493E+02   0.171420E-24   0.497350E-26  -0.381690E-26   0.171418E-24   0.497440E-26  -0.381593E-26   0.171417E-24   0.497437E-26  -0.381590E-26   0.171445E-24   0.496839E-26  -0.382297E-26
  63   0.772643E+02   0.171640E-24   0.497988E-26  -0.382179E-26   0.171638E-24   0.498079E-26  -0.382082E-26   0.171637E-24   0.498075E-26  -0.382080E-26   0.171665E-24   0.497477E-26  -0.382788E-26
  64   0.788096E+02   0.171860E-24   0.495854E-26  -0.385515E-26   0.171860E-24   0.498044E-26  -0.383224E-26   0.171853E-24   0.498701E-26  -0.382560E-26   0.171880E-24   0.495109E-26  -0.383269E-26
  65   0.803858E+02   0.172048E-24   0.499834E-26  -0.380240E-26   0.172083E-24   0.495693E-26  -0.383721E-26   0.172076E-24   0.498670E-26  -0.383706E-26   0.172069E-24   0.499329E-26  -0.383041E-26
  66   0.819935E+02   0.172271E-24   0.500482E-26  -0.380733E-26   0.172277E-24   0.499933E-26  -0.383505E-26   0.172276E-24   0.500591E-26  -0.380651E-26   0.172282E-24   0.499948E-26  -0.383517E-26
  67   0.836334E+02   0.172514E-24   0.497618E-26  -0.384034E-26   0.172514E-24   0.499940E-26  -0.384683E-26   0.172507E-24   0.500600E-26  -0.384016E-26   0.172505E-24   0.500596E-26  -0.384014E-26
  68   0.853060E+02   0.172738E-24   0.498263E-26  -0.384531E-26   0.172738E-24   0.500588E-26  -0.385181E-26   0.172730E-24   0.501248E-26  -0.384514E-26   0.172729E-24   0.501245E-26  -0.384511E-26
  69   0.870122E+02   0.172962E-24   0.501921E-26  -0.385030E-26   0.172961E-24   0.501917E-26  -0.385027E-26   0.172959E-24   0.501914E-26  -0.385024E-26   0.172958E-24   0.501910E-26  -0.385022E-26
  70   0.887524E+02   0.173191E-24   0.499571E-26  -0.385541E-26   0.173191E-24   0.501902E-26  -0.386192E-26   0.173184E-24   0.502564E-26  -0.385523E-26   0.173182E-24   0.502561E-26  -0.385521E-26
  71   0.905275E+02   0.173416E-24   0.503238E-26  -0.386040E-26   0.173415E-24   0.503235E-26  -0.386038E-26   0.173413E-24   0.503231E-26  -0.386035E-26   0.173412E-24   0.500871E-26  -0.383162E-26
  72   0.923380E+02   0.173650E-24   0.501568E-26  -0.386562E-26   0.173657E-24   0.503250E-26  -0.387230E-26   0.173649E-24   0.503915E-26  -0.386559E-26   0.173648E-24   0.503911E-26  -0.386556E-26
  73   0.941848E+02   0.173882E-24   0.504591E-26  -0.387078E-26   0.173881E-24   0.502224E-26  -0.384197E-26   0.173883E-24   0.501550E-26  -0.384853E-26   0.173880E-24   0.504570E-26  -0.384845E-26
  74   0.960685E+02   0.174115E-24   0.502901E-26  -0.384715E-26   0.174118E-24   0.505261E-26  -0.385372E-26   0.174118E-24   0.502909E-26  -0.384721E-26   0.174121E-24   0.505269E-26  -0.385378E-26
  75   0.979898E+02   0.174357E-24   0.503598E-26  -0.385249E-26   0.174359E-24   0.502923E-26  -0.385906E-26   0.174356E-24   0.505951E-26  -0.385898E-26   0.174355E-24   0.503595E-26  -0.385246E-26
  76   0.146985E+03   0.179604E-24   0.518068E-26  -0.399816E-26   0.179604E-24   0.518052E-26  -0.397514E-26   0.179600E-24   0.518040E-26  -0.397506E-26   0.179596E-24   0.518028E-26  -0.397497E-26
  77   0.149924E+03   0.179866E-24   0.519513E-26  -0.397423E-26   0.179869E-24   0.518816E-26  -0.398102E-26   0.179866E-24   0.518805E-26  -0.398093E-26   0.179862E-24   0.518793E-26  -0.398084E-26
  78   0.152923E+03   0.180163E-24   0.516440E-26  -0.401156E-26   0.180127E-24   0.522699E-26  -0.398673E-26   0.180158E-24   0.519648E-26  -0.398739E-26   0.180154E-24   0.518940E-26  -0.401718E-26
  79   0.155981E+03   0.180421E-24   0.520426E-26  -0.401636E-26   0.180421E-24   0.520409E-26  -0.399323E-26   0.180418E-24   0.520397E-26  -0.399315E-26   0.180414E-24   0.520386E-26  -0.399306E-26
  80   0.159101E+03   0.180685E-24   0.521877E-26  -0.399232E-26   0.180688E-24   0.521177E-26  -0.399913E-26   0.180684E-24   0.521165E-26  -0.399905E-26   0.180680E-24   0.521154E-26  -0.399896E-26
  81   0.162283E+03   0.180952E-24   0.522648E-26  -0.399821E-26   0.180955E-24   0.521946E-26  -0.400504E-26   0.180981E-24   0.522041E-26  -0.402882E-26   0.180951E-24   0.522645E-26  -0.399819E-26
  82   0.165529E+03   0.181230E-24   0.523451E-26  -0.400435E-26   0.181233E-24   0.522748E-26  -0.401119E-26   0.181260E-24   0.522843E-26  -0.403501E-26   0.181229E-24   0.523448E-26  -0.400433E-26
  83   0.168839E+03   0.181508E-24   0.524255E-26  -0.401051E-26   0.181511E-24   0.523552E-26  -0.401736E-26   0.181507E-24   0.523540E-26  -0.401727E-26   0.181503E-24   0.523529E-26  -0.401718E-26
  84   0.172216E+03   0.181807E-24   0.521154E-26  -0.404818E-26   0.181772E-24   0.524302E-26  -0.402312E-26   0.181798E-24   0.524397E-26  -0.404701E-26   0.181798E-24   0.523678E-26  -0.405385E-26
  85   0.175660E+03   0.182069E-24   0.525177E-26  -0.405302E-26   0.182069E-24   0.525160E-26  -0.402968E-26   0.182065E-24   0.525148E-26  -0.402960E-26   0.182061E-24   0.525136E-26  -0.402951E-26
  86   0.179174E+03   0.182334E-24   0.526641E-26  -0.402876E-26   0.182337E-24   0.525935E-26  -0.403564E-26   0.182333E-24   0.525923E-26  -0.403555E-26   0.182329E-24   0.525912E-26  -0.403546E-26
  87   0.182757E+03   0.182635E-24   0.523526E-26  -0.406660E-26   0.182599E-24   0.526689E-26  -0.404143E-26   0.182626E-24   0.526784E-26  -0.406543E-26   0.182626E-24   0.526767E-26  -0.404202E-26
  88   0.186412E+03   0.182900E-24   0.527576E-26  -0.407154E-26   0.182900E-24   0.527559E-26  -0.404810E-26   0.182897E-24   0.527547E-26  -0.404801E-26   0.182893E-24   0.527536E-26  -0.404793E-26
  89   0.190140E+03   0.183168E-24   0.529048E-26  -0.404717E-26   0.183171E-24   0.528338E-26  -0.405408E-26   0.183167E-24   0.528326E-26  -0.405399E-26   0.183163E-24   0.528315E-26  -0.405390E-26
  90   0.193943E+03   0.183438E-24   0.529829E-26  -0.405315E-26   0.183441E-24   0.529118E-26  -0.406007E-26   0.183437E-24   0.529106E-26  -0.405998E-26   0.183433E-24   0.529095E-26  -0.405989E-26
  91   0.197822E+03   0.183740E-24   0.526694E-26  -0.409122E-26   0.183735E-24   0.529984E-26  -0.409012E-26   0.183735E-24   0.529967E-26  -0.406657E-26   0.183731E-24   0.529955E-26  -0.406649E-26
  92   0.201779E+03   0.184008E-24   0.531474E-26  -0.406573E-26   0.184011E-24   0.530760E-26  -0.407267E-26   0.184007E-24   0.530749E-26  -0.407258E-26   0.184002E-24   0.530737E-26  -0.407249E-26
  93   0.205814E+03   0.184279E-24   0.532258E-26  -0.407173E-26   0.184282E-24   0.531544E-26  -0.407868E-26   0.184278E-24   0.531533E-26  -0.407860E-26   0.184274E-24   0.531521E-26  -0.407851E-26
  94   0.209930E+03   0.184551E-24   0.533044E-26  -0.407774E-26   0.184554E-24   0.532329E-26  -0.408471E-26   0.184550E-24   0.532317E-26  -0.408462E-26   0.184546E-24   0.532306E-26  -0.408453E-26
  95   0.314896E+03   0.190062E-24   0.544818E-26  -0.423199E-26   0.190025E-24   0.548109E-26  -0.420579E-26   0.190053E-24   0.545624E-26  -0.419931E-26   0.190028E-24   0.548118E-26  -0.420585E-26
  96   0.472343E+03   0.194452E-24   0.558264E-26  -0.432869E-26   0.194456E-24   0.558263E-26  -0.429659E-26   0.194430E-24   0.560815E-26  -0.430328E-26   0.194426E-24   0.560802E-26  -0.430319E-26
  97   0.708515E+03   0.197174E-24   0.566068E-26  -0.435666E-26   0.197148E-24   0.568656E-26  -0.436344E-26   0.197144E-24   0.571326E-26  -0.433066E-26   0.197166E-24   0.568705E-26  -0.436383E-26
  98   0.106277E+04   0.198401E-24   0.569589E-26  -0.438376E-26   0.198408E-24   0.569611E-26  -0.438392E-26   0.198382E-24   0.572215E-26  -0.439075E-26   0.198378E-24   0.574902E-26  -0.435777E-26
