# Thermal sigma v for some different final states
# The final states are:
# Case 1: PDG = 12
# Case 2: PDG = 15
# Case 3: PDG =  6
# Case 4: PDG = 24
#  i     Mass [GeV]      sigvmid_1     sigvperr_1     sigvmerr_1      sigvmid_2     sigvperr_2     sigvmerr_2      sigvmid_3     sigvperr_3     sigvmerr_3      sigvmid_4     sigvperr_4     sigvmerr_4, sigv in units of cm^3/s^1
   1   0.100000E-02   0.270077E-24   0.831351E-26  -0.633032E-26   0.100000E+01   0.000000E+00   0.000000E+00   0.100000E+01   0.000000E+00   0.000000E+00   0.100000E+01   0.000000E+00   0.000000E+00
   2   0.150000E-02   0.263785E-24   0.815862E-26  -0.631024E-26   0.100000E+01   0.000000E+00   0.000000E+00   0.100000E+01   0.000000E+00   0.000000E+00   0.100000E+01   0.000000E+00   0.000000E+00
   3   0.225000E-02   0.235816E-24   0.738373E-26  -0.568016E-26   0.100000E+01   0.000000E+00   0.000000E+00   0.100000E+01   0.000000E+00   0.000000E+00   0.100000E+01   0.000000E+00   0.000000E+00
   4   0.337500E-02   0.211058E-24   0.655601E-26  -0.498737E-26   0.100000E+01   0.000000E+00   0.000000E+00   0.100000E+01   0.000000E+00   0.000000E+00   0.100000E+01   0.000000E+00   0.000000E+00
   5   0.506250E-02   0.205068E-24   0.624496E-26  -0.480260E-26   0.100000E+01   0.000000E+00   0.000000E+00   0.100000E+01   0.000000E+00   0.000000E+00   0.100000E+01   0.000000E+00   0.000000E+00
   6   0.759375E-02   0.209514E-24   0.633393E-26  -0.487343E-26   0.100000E+01   0.000000E+00   0.000000E+00   0.100000E+01   0.000000E+00   0.000000E+00   0.100000E+01   0.000000E+00   0.000000E+00
   7   0.113906E-01   0.218444E-24   0.660683E-26  -0.504502E-26   0.100000E+01   0.000000E+00   0.000000E+00   0.100000E+01   0.000000E+00   0.000000E+00   0.100000E+01   0.000000E+00   0.000000E+00
   8   0.170859E-01   0.229433E-24   0.684996E-26  -0.530758E-26   0.100000E+01   0.000000E+00   0.000000E+00   0.100000E+01   0.000000E+00   0.000000E+00   0.100000E+01   0.000000E+00   0.000000E+00
   9   0.256289E-01   0.241255E-24   0.720938E-26  -0.557492E-26   0.100000E+01   0.000000E+00   0.000000E+00   0.100000E+01   0.000000E+00   0.000000E+00   0.100000E+01   0.000000E+00   0.000000E+00
  10   0.384434E-01   0.253490E-24   0.759513E-26  -0.577373E-26   0.100000E+01   0.000000E+00   0.000000E+00   0.100000E+01   0.000000E+00   0.000000E+00   0.100000E+01   0.000000E+00   0.000000E+00
  11   0.576650E-01   0.266191E-24   0.790995E-26  -0.610204E-26   0.100000E+01   0.000000E+00   0.000000E+00   0.100000E+01   0.000000E+00   0.000000E+00   0.100000E+01   0.000000E+00   0.000000E+00
  12   0.864976E-01   0.278989E-24   0.826171E-26  -0.635451E-26   0.100000E+01   0.000000E+00   0.000000E+00   0.100000E+01   0.000000E+00   0.000000E+00   0.100000E+01   0.000000E+00   0.000000E+00
  13   0.129746E+00   0.292120E-24   0.867851E-26  -0.660158E-26   0.100000E+01   0.000000E+00   0.000000E+00   0.100000E+01   0.000000E+00   0.000000E+00   0.100000E+01   0.000000E+00   0.000000E+00
  14   0.194620E+00   0.305337E-24   0.899467E-26  -0.694889E-26   0.100000E+01   0.000000E+00   0.000000E+00   0.100000E+01   0.000000E+00   0.000000E+00   0.100000E+01   0.000000E+00   0.000000E+00
  15   0.291929E+00   0.316450E-24   0.936271E-26  -0.721569E-26   0.100000E+01   0.000000E+00   0.000000E+00   0.100000E+01   0.000000E+00   0.000000E+00   0.100000E+01   0.000000E+00   0.000000E+00
  16   0.437894E+00   0.318413E-24   0.942079E-26  -0.726045E-26   0.100000E+01   0.000000E+00   0.000000E+00   0.100000E+01   0.000000E+00   0.000000E+00   0.100000E+01   0.000000E+00   0.000000E+00
  17   0.656841E+00   0.310934E-24   0.921383E-26  -0.707627E-26   0.100000E+01   0.000000E+00   0.000000E+00   0.100000E+01   0.000000E+00   0.000000E+00   0.100000E+01   0.000000E+00   0.000000E+00
  18   0.985261E+00   0.303689E-24   0.899915E-26  -0.691139E-26   0.100000E+01   0.000000E+00   0.000000E+00   0.100000E+01   0.000000E+00   0.000000E+00   0.100000E+01   0.000000E+00   0.000000E+00
  19   0.147789E+01   0.298915E-24   0.883025E-26  -0.675329E-26   0.342747E-21   0.139902E-22  -0.105309E-22   0.100000E+01   0.000000E+00   0.000000E+00   0.100000E+01   0.000000E+00   0.000000E+00
  20   0.150745E+01   0.298626E-24   0.881979E-26  -0.670289E-26   0.133897E-21   0.521996E-23  -0.402590E-23   0.100000E+01   0.000000E+00   0.000000E+00   0.100000E+01   0.000000E+00   0.000000E+00
  21   0.153760E+01   0.298396E-24   0.877646E-26  -0.680402E-26   0.536800E-22   0.201819E-23  -0.155843E-23   0.100000E+01   0.000000E+00   0.000000E+00   0.100000E+01   0.000000E+00   0.000000E+00
  22   0.156835E+01   0.298050E-24   0.880274E-26  -0.673560E-26   0.221279E-22   0.807904E-24  -0.617273E-24   0.100000E+01   0.000000E+00   0.000000E+00   0.100000E+01   0.000000E+00   0.000000E+00
  23   0.159972E+01   0.297705E-24   0.884052E-26  -0.673150E-26   0.940433E-23   0.331528E-24  -0.253321E-24   0.100000E+01   0.000000E+00   0.000000E+00   0.100000E+01   0.000000E+00   0.000000E+00
  24   0.163171E+01   0.297360E-24   0.878235E-26  -0.672000E-26   0.413829E-23   0.141362E-24  -0.106922E-24   0.100000E+01   0.000000E+00   0.000000E+00   0.100000E+01   0.000000E+00   0.000000E+00
  25   0.166435E+01   0.296958E-24   0.882418E-26  -0.670906E-26   0.189974E-23   0.624480E-25  -0.476289E-25   0.100000E+01   0.000000E+00   0.000000E+00   0.100000E+01   0.000000E+00   0.000000E+00
  26   0.169763E+01   0.296556E-24   0.874697E-26  -0.671292E-26   0.922191E-24   0.291728E-25  -0.223592E-25   0.100000E+01   0.000000E+00   0.000000E+00   0.100000E+01   0.000000E+00   0.000000E+00
  27   0.173159E+01   0.296098E-24   0.874283E-26  -0.669737E-26   0.488183E-24   0.148642E-25  -0.114354E-25   0.100000E+01   0.000000E+00   0.000000E+00   0.100000E+01   0.000000E+00   0.000000E+00
  28   0.176622E+01   0.295584E-24   0.878335E-26  -0.667802E-26   0.310039E-24   0.918755E-26  -0.705566E-26   0.100000E+01   0.000000E+00   0.000000E+00   0.100000E+01   0.000000E+00   0.000000E+00
  29   0.180154E+01   0.295070E-24   0.874179E-26  -0.671708E-26   0.295088E-24   0.873940E-26  -0.672028E-26   0.100000E+01   0.000000E+00   0.000000E+00   0.100000E+01   0.000000E+00   0.000000E+00
  30   0.183757E+01   0.294500E-24   0.874537E-26  -0.665905E-26   0.294538E-24   0.867170E-26  -0.670776E-26   0.100000E+01   0.000000E+00   0.000000E+00   0.100000E+01   0.000000E+00   0.000000E+00
  31   0.187432E+01   0.293932E-24   0.870807E-26  -0.669117E-26   0.293900E-24   0.870929E-26  -0.668837E-26   0.100000E+01   0.000000E+00   0.000000E+00   0.100000E+01   0.000000E+00   0.000000E+00
  32   0.191181E+01   0.293251E-24   0.868790E-26  -0.667567E-26   0.293269E-24   0.868552E-26  -0.667885E-26   0.100000E+01   0.000000E+00   0.000000E+00   0.100000E+01   0.000000E+00   0.000000E+00
  33   0.195005E+01   0.292572E-24   0.866778E-26  -0.666021E-26   0.292589E-24   0.866540E-26  -0.666338E-26   0.100000E+01   0.000000E+00   0.000000E+00   0.100000E+01   0.000000E+00   0.000000E+00
  34   0.198905E+01   0.291838E-24   0.864795E-26  -0.664167E-26   0.291857E-24   0.864372E-26  -0.664670E-26   0.100000E+01   0.000000E+00   0.000000E+00   0.100000E+01   0.000000E+00   0.000000E+00
  35   0.202883E+01   0.291049E-24   0.862459E-26  -0.662373E-26   0.291069E-24   0.862036E-26  -0.662875E-26   0.100000E+01   0.000000E+00   0.000000E+00   0.100000E+01   0.000000E+00   0.000000E+00
  36   0.206941E+01   0.290207E-24   0.858626E-26  -0.661729E-26   0.290213E-24   0.859503E-26  -0.660926E-26   0.100000E+01   0.000000E+00   0.000000E+00   0.100000E+01   0.000000E+00   0.000000E+00
  37   0.211079E+01   0.289311E-24   0.855976E-26  -0.659687E-26   0.289317E-24   0.856850E-26  -0.658886E-26   0.100000E+01   0.000000E+00   0.000000E+00   0.100000E+01   0.000000E+00   0.000000E+00
  38   0.215301E+01   0.288306E-24   0.854141E-26  -0.656311E-26   0.288324E-24   0.853907E-26  -0.656623E-26   0.100000E+01   0.000000E+00   0.000000E+00   0.100000E+01   0.000000E+00   0.000000E+00
  39   0.322951E+01   0.224825E-24   0.695829E-26  -0.533962E-26   0.224826E-24   0.695444E-26  -0.534333E-26   0.100000E+01   0.000000E+00   0.000000E+00   0.100000E+01   0.000000E+00   0.000000E+00
  40   0.484427E+01   0.171701E-24   0.514453E-26  -0.391081E-26   0.171711E-24   0.510159E-26  -0.393704E-26   0.100000E+01   0.000000E+00   0.000000E+00   0.100000E+01   0.000000E+00   0.000000E+00
  41   0.726641E+01   0.159267E-24   0.469171E-26  -0.362461E-26   0.159254E-24   0.471651E-26  -0.362682E-26   0.100000E+01   0.000000E+00   0.000000E+00   0.100000E+01   0.000000E+00   0.000000E+00
  42   0.108996E+02   0.154986E-24   0.455042E-26  -0.350251E-26   0.154984E-24   0.455150E-26  -0.350138E-26   0.100000E+01   0.000000E+00   0.000000E+00   0.100000E+01   0.000000E+00   0.000000E+00
  43   0.163494E+02   0.153733E-24   0.453746E-26  -0.345160E-26   0.153754E-24   0.451539E-26  -0.347360E-26   0.100000E+01   0.000000E+00   0.000000E+00   0.100000E+01   0.000000E+00   0.000000E+00
  44   0.245241E+02   0.154060E-24   0.449940E-26  -0.345514E-26   0.154072E-24   0.449987E-26  -0.345529E-26   0.100000E+01   0.000000E+00   0.000000E+00   0.100000E+01   0.000000E+00   0.000000E+00
  45   0.367862E+02   0.155406E-24   0.455675E-26  -0.346627E-26   0.155409E-24   0.453802E-26  -0.348611E-26   0.100000E+01   0.000000E+00   0.000000E+00   0.100000E+01   0.000000E+00   0.000000E+00
  46   0.551793E+02   0.158132E-24   0.458975E-26  -0.354744E-26   0.158106E-24   0.461476E-26  -0.352045E-26   0.100000E+01   0.000000E+00   0.000000E+00   0.100000E+01   0.000000E+00   0.000000E+00
  47   0.562829E+02   0.158285E-24   0.462075E-26  -0.352370E-26   0.158285E-24   0.461997E-26  -0.352443E-26   0.100000E+01   0.000000E+00   0.000000E+00   0.100000E+01   0.000000E+00   0.000000E+00
  48   0.574085E+02   0.158469E-24   0.462815E-26  -0.355401E-26   0.158454E-24   0.462490E-26  -0.352819E-26   0.100000E+01   0.000000E+00   0.000000E+00   0.100000E+01   0.000000E+00   0.000000E+00
  49   0.585567E+02   0.158622E-24   0.462955E-26  -0.353217E-26   0.158648E-24   0.460587E-26  -0.355790E-26   0.100000E+01   0.000000E+00   0.000000E+00   0.937496E-18   0.468432E-19  -0.351968E-19
  50   0.597278E+02   0.158806E-24   0.462878E-26  -0.354211E-26   0.158826E-24   0.461103E-26  -0.356190E-26   0.100000E+01   0.000000E+00   0.000000E+00   0.277493E-18   0.134830E-19  -0.101466E-19
  51   0.609224E+02   0.158990E-24   0.464030E-26  -0.354037E-26   0.158989E-24   0.464052E-26  -0.354010E-26   0.100000E+01   0.000000E+00   0.000000E+00   0.842910E-19   0.396636E-20  -0.297797E-20
  52   0.621408E+02   0.159175E-24   0.464363E-26  -0.354643E-26   0.159171E-24   0.464585E-26  -0.354417E-26   0.100000E+01   0.000000E+00   0.000000E+00   0.262656E-19   0.119127E-20  -0.900348E-21
  53   0.633836E+02   0.159359E-24   0.465107E-26  -0.354859E-26   0.159358E-24   0.465130E-26  -0.354832E-26   0.100000E+01   0.000000E+00   0.000000E+00   0.839600E-20   0.369434E-21  -0.279087E-21
  54   0.646513E+02   0.159544E-24   0.465984E-26  -0.355544E-26   0.159546E-24   0.465679E-26  -0.355251E-26   0.100000E+01   0.000000E+00   0.000000E+00   0.275424E-20   0.116435E-21  -0.886960E-22
  55   0.659443E+02   0.159760E-24   0.463803E-26  -0.358297E-26   0.159735E-24   0.466230E-26  -0.355671E-26   0.100000E+01   0.000000E+00   0.000000E+00   0.927211E-21   0.378301E-22  -0.290503E-22
  56   0.672632E+02   0.159945E-24   0.464135E-26  -0.356066E-26   0.159944E-24   0.464145E-26  -0.356051E-26   0.100000E+01   0.000000E+00   0.000000E+00   0.320456E-21   0.127299E-22  -0.962465E-23
  57   0.686085E+02   0.160131E-24   0.467463E-26  -0.356479E-26   0.160131E-24   0.467385E-26  -0.356553E-26   0.100000E+01   0.000000E+00   0.000000E+00   0.113857E-21   0.433969E-23  -0.332328E-23
  58   0.699807E+02   0.160348E-24   0.465405E-26  -0.359714E-26   0.160349E-24   0.465525E-26  -0.359605E-26   0.100000E+01   0.000000E+00   0.000000E+00   0.416104E-22   0.153723E-23  -0.116888E-23
  59   0.713803E+02   0.160534E-24   0.467803E-26  -0.358173E-26   0.160553E-24   0.466117E-26  -0.360063E-26   0.100000E+01   0.000000E+00   0.000000E+00   0.156815E-22   0.557048E-24  -0.429462E-24
  60   0.728079E+02   0.160751E-24   0.466473E-26  -0.357860E-26   0.160750E-24   0.466482E-26  -0.357845E-26   0.100000E+01   0.000000E+00   0.000000E+00   0.610957E-23   0.209947E-24  -0.159878E-24
  61   0.742640E+02   0.160969E-24   0.467207E-26  -0.361107E-26   0.160942E-24   0.470375E-26  -0.355695E-26   0.100000E+01   0.000000E+00   0.000000E+00   0.247410E-23   0.819610E-25  -0.628625E-25
  62   0.757493E+02   0.161155E-24   0.470142E-26  -0.359056E-26   0.161152E-24   0.470366E-26  -0.358827E-26   0.100000E+01   0.000000E+00   0.000000E+00   0.105027E-23   0.335541E-25  -0.256875E-25
  63   0.772643E+02   0.161374E-24   0.468280E-26  -0.359245E-26   0.161372E-24   0.468289E-26  -0.359230E-26   0.100000E+01   0.000000E+00   0.000000E+00   0.475755E-24   0.146317E-25  -0.112237E-25
  64   0.788096E+02   0.161592E-24   0.468809E-26  -0.359831E-26   0.161590E-24   0.468920E-26  -0.359714E-26   0.100000E+01   0.000000E+00   0.000000E+00   0.240093E-24   0.713442E-26  -0.550377E-26
  65   0.803858E+02   0.161800E-24   0.472337E-26  -0.358108E-26   0.161799E-24   0.469434E-26  -0.360266E-26   0.100000E+01   0.000000E+00   0.000000E+00   0.161811E-24   0.469548E-26  -0.360218E-26
  66   0.819935E+02   0.162029E-24   0.470194E-26  -0.360692E-26   0.162028E-24   0.470191E-26  -0.360689E-26   0.100000E+01   0.000000E+00   0.000000E+00   0.162030E-24   0.472076E-26  -0.359504E-26
  67   0.836334E+02   0.162239E-24   0.470712E-26  -0.361247E-26   0.162264E-24   0.470440E-26  -0.364517E-26   0.100000E+01   0.000000E+00   0.000000E+00   0.162249E-24   0.470820E-26  -0.361194E-26
  68   0.853060E+02   0.162468E-24   0.471468E-26  -0.361669E-26   0.162467E-24   0.471464E-26  -0.361666E-26   0.100000E+01   0.000000E+00   0.000000E+00   0.162469E-24   0.471353E-26  -0.361783E-26
  69   0.870122E+02   0.162714E-24   0.469331E-26  -0.364928E-26   0.162713E-24   0.468906E-26  -0.365524E-26   0.100000E+01   0.000000E+00   0.000000E+00   0.162689E-24   0.472096E-26  -0.362173E-26
  70   0.887524E+02   0.162935E-24   0.470621E-26  -0.362708E-26   0.162914E-24   0.472763E-26  -0.362662E-26   0.100000E+01   0.000000E+00   0.000000E+00   0.162909E-24   0.475888E-26  -0.360264E-26
  71   0.905275E+02   0.163159E-24   0.473684E-26  -0.365908E-26   0.163161E-24   0.470848E-26  -0.365912E-26   0.100000E+01   0.000000E+00   0.000000E+00   0.163161E-24   0.473150E-26  -0.363524E-26
  72   0.923380E+02   0.163378E-24   0.474108E-26  -0.363694E-26   0.163377E-24   0.474105E-26  -0.363692E-26   0.100000E+01   0.000000E+00   0.000000E+00   0.163382E-24   0.474107E-26  -0.363716E-26
  73   0.941848E+02   0.163630E-24   0.472626E-26  -0.364253E-26   0.163608E-24   0.474777E-26  -0.364207E-26   0.100000E+01   0.000000E+00   0.000000E+00   0.163603E-24   0.475272E-26  -0.361600E-26
  74   0.960685E+02   0.163857E-24   0.476140E-26  -0.364759E-26   0.163835E-24   0.478828E-26  -0.362087E-26   0.100000E+01   0.000000E+00   0.000000E+00   0.163856E-24   0.475377E-26  -0.364872E-26
  75   0.979898E+02   0.164104E-24   0.473995E-26  -0.365308E-26   0.164082E-24   0.476152E-26  -0.365262E-26   0.100000E+01   0.000000E+00   0.000000E+00   0.164078E-24   0.476127E-26  -0.365265E-26
  76   0.146985E+03   0.169240E-24   0.491024E-26  -0.376835E-26   0.169238E-24   0.491113E-26  -0.376739E-26   0.182480E-21   0.698891E-23  -0.529774E-23   0.169230E-24   0.491728E-26  -0.373934E-26
  77   0.149924E+03   0.169494E-24   0.492521E-26  -0.377308E-26   0.169499E-24   0.491873E-26  -0.377322E-26   0.640871E-22   0.237517E-23  -0.180737E-23   0.169492E-24   0.492489E-26  -0.374513E-26
  78   0.152923E+03   0.169756E-24   0.493283E-26  -0.377891E-26   0.169762E-24   0.492634E-26  -0.377906E-26   0.232097E-22   0.828723E-24  -0.635456E-24   0.169754E-24   0.493250E-26  -0.375092E-26
  79   0.155981E+03   0.170019E-24   0.494046E-26  -0.378476E-26   0.170024E-24   0.493396E-26  -0.378491E-26   0.869302E-23   0.299451E-24  -0.229414E-24   0.170017E-24   0.494014E-26  -0.375672E-26
  80   0.159101E+03   0.170282E-24   0.494171E-26  -0.376222E-26   0.170311E-24   0.490589E-26  -0.379770E-26   0.338225E-23   0.113181E-24  -0.859842E-25   0.170313E-24   0.491143E-26  -0.379250E-26
  81   0.162283E+03   0.170571E-24   0.492012E-26  -0.379708E-26   0.170571E-24   0.494308E-26  -0.380349E-26   0.137869E-23   0.442872E-25  -0.337198E-25   0.170576E-24   0.491903E-26  -0.379837E-26
  82   0.165529E+03   0.170835E-24   0.495749E-26  -0.380295E-26   0.170834E-24   0.495745E-26  -0.380292E-26   0.598065E-24   0.184977E-25  -0.141092E-25   0.170840E-24   0.495640E-26  -0.380424E-26
  83   0.168839E+03   0.171098E-24   0.497181E-26  -0.380879E-26   0.171103E-24   0.496528E-26  -0.380893E-26   0.286567E-24   0.854205E-26  -0.652151E-26   0.171110E-24   0.496257E-26  -0.381183E-26
  84   0.172216E+03   0.171367E-24   0.497962E-26  -0.381477E-26   0.171372E-24   0.497308E-26  -0.381491E-26   0.174238E-24   0.505625E-26  -0.387871E-26   0.171370E-24   0.497301E-26  -0.381486E-26
  85   0.175660E+03   0.171630E-24   0.498726E-26  -0.382063E-26   0.171635E-24   0.495739E-26  -0.379236E-26   0.171638E-24   0.498065E-26  -0.379884E-26   0.171638E-24   0.498079E-26  -0.382083E-26
  86   0.179174E+03   0.171899E-24   0.498862E-26  -0.379794E-26   0.171928E-24   0.495246E-26  -0.383375E-26   0.171921E-24   0.498221E-26  -0.383360E-26   0.171914E-24   0.498878E-26  -0.382696E-26
  87   0.182757E+03   0.172174E-24   0.500308E-26  -0.383275E-26   0.172180E-24   0.499651E-26  -0.383289E-26   0.172179E-24   0.497308E-26  -0.380436E-26   0.172181E-24   0.496641E-26  -0.381086E-26
  88   0.186412E+03   0.172470E-24   0.497391E-26  -0.384027E-26   0.172469E-24   0.496803E-26  -0.384580E-26   0.172462E-24   0.499788E-26  -0.384566E-26   0.172454E-24   0.500447E-26  -0.383899E-26
  89   0.190140E+03   0.172716E-24   0.501881E-26  -0.384480E-26   0.172721E-24   0.501223E-26  -0.384494E-26   0.172720E-24   0.501219E-26  -0.384491E-26   0.172719E-24   0.498868E-26  -0.381630E-26
  90   0.193943E+03   0.172985E-24   0.499638E-26  -0.382219E-26   0.172988E-24   0.501982E-26  -0.382871E-26   0.172988E-24   0.499645E-26  -0.382224E-26   0.172991E-24   0.498975E-26  -0.382877E-26
  91   0.197822E+03   0.173280E-24   0.499729E-26  -0.385832E-26   0.173279E-24   0.499138E-26  -0.386388E-26   0.173273E-24   0.499119E-26  -0.386373E-26   0.173266E-24   0.499769E-26  -0.383486E-26
  92   0.201779E+03   0.173526E-24   0.501201E-26  -0.383415E-26   0.173529E-24   0.503553E-26  -0.384069E-26   0.173529E-24   0.501209E-26  -0.383420E-26   0.173532E-24   0.500536E-26  -0.384075E-26
  93   0.205814E+03   0.173822E-24   0.501292E-26  -0.387039E-26   0.173821E-24   0.500700E-26  -0.387597E-26   0.173815E-24   0.500681E-26  -0.387582E-26   0.173808E-24   0.501333E-26  -0.384686E-26
  94   0.209930E+03   0.174069E-24   0.502769E-26  -0.384614E-26   0.174072E-24   0.502095E-26  -0.385271E-26   0.174069E-24   0.502084E-26  -0.385263E-26   0.174065E-24   0.505107E-26  -0.385254E-26
  95   0.314896E+03   0.179359E-24   0.520469E-26  -0.396970E-26   0.179358E-24   0.518046E-26  -0.396300E-26   0.179361E-24   0.517350E-26  -0.396977E-26   0.179357E-24   0.520465E-26  -0.396968E-26
  96   0.472343E+03   0.183596E-24   0.530286E-26  -0.405664E-26   0.183599E-24   0.529574E-26  -0.406357E-26   0.183595E-24   0.529562E-26  -0.406348E-26   0.183591E-24   0.529551E-26  -0.406339E-26
  97   0.708515E+03   0.186218E-24   0.537545E-26  -0.411755E-26   0.186218E-24   0.537128E-26  -0.412153E-26   0.186214E-24   0.537116E-26  -0.412144E-26   0.186210E-24   0.537104E-26  -0.412135E-26
  98   0.106277E+04   0.187472E-24   0.541850E-26  -0.414139E-26   0.187482E-24   0.540775E-26  -0.414951E-26   0.187478E-24   0.540763E-26  -0.414942E-26   0.187474E-24   0.540751E-26  -0.414933E-26
