# Thermal sigma v for some different final states
# The final states are:
# Case 1: PDG = 12
# Case 2: PDG = 15
# Case 3: PDG =  6
# Case 4: PDG = 24
#  i     Mass [GeV]      sigvmid_1     sigvperr_1     sigvmerr_1      sigvmid_2     sigvperr_2     sigvmerr_2      sigvmid_3     sigvperr_3     sigvmerr_3      sigvmid_4     sigvperr_4     sigvmerr_4, sigv in units of cm^3/s^1
   1   0.100000E-02   0.598528E-24   0.183275E-25  -0.140211E-25   0.100000E+01   0.000000E+00   0.000000E+00   0.100000E+01   0.000000E+00   0.000000E+00   0.100000E+01   0.000000E+00   0.000000E+00
   2   0.150000E-02   0.589574E-24   0.181321E-25  -0.140140E-25   0.100000E+01   0.000000E+00   0.000000E+00   0.100000E+01   0.000000E+00   0.000000E+00   0.100000E+01   0.000000E+00   0.000000E+00
   3   0.225000E-02   0.530948E-24   0.165217E-25  -0.126135E-25   0.100000E+01   0.000000E+00   0.000000E+00   0.100000E+01   0.000000E+00   0.000000E+00   0.100000E+01   0.000000E+00   0.000000E+00
   4   0.337500E-02   0.471089E-24   0.144914E-25  -0.111106E-25   0.100000E+01   0.000000E+00   0.000000E+00   0.100000E+01   0.000000E+00   0.000000E+00   0.100000E+01   0.000000E+00   0.000000E+00
   5   0.506250E-02   0.452617E-24   0.137561E-25  -0.105340E-25   0.100000E+01   0.000000E+00   0.000000E+00   0.100000E+01   0.000000E+00   0.000000E+00   0.100000E+01   0.000000E+00   0.000000E+00
   6   0.759375E-02   0.459580E-24   0.139031E-25  -0.106112E-25   0.100000E+01   0.000000E+00   0.000000E+00   0.100000E+01   0.000000E+00   0.000000E+00   0.100000E+01   0.000000E+00   0.000000E+00
   7   0.113906E-01   0.477413E-24   0.142536E-25  -0.110442E-25   0.100000E+01   0.000000E+00   0.000000E+00   0.100000E+01   0.000000E+00   0.000000E+00   0.100000E+01   0.000000E+00   0.000000E+00
   8   0.170859E-01   0.499882E-24   0.149842E-25  -0.113795E-25   0.100000E+01   0.000000E+00   0.000000E+00   0.100000E+01   0.000000E+00   0.000000E+00   0.100000E+01   0.000000E+00   0.000000E+00
   9   0.256289E-01   0.524523E-24   0.156346E-25  -0.119372E-25   0.100000E+01   0.000000E+00   0.000000E+00   0.100000E+01   0.000000E+00   0.000000E+00   0.100000E+01   0.000000E+00   0.000000E+00
  10   0.384434E-01   0.550060E-24   0.162998E-25  -0.125183E-25   0.100000E+01   0.000000E+00   0.000000E+00   0.100000E+01   0.000000E+00   0.000000E+00   0.100000E+01   0.000000E+00   0.000000E+00
  11   0.576650E-01   0.576394E-24   0.170801E-25  -0.131176E-25   0.100000E+01   0.000000E+00   0.000000E+00   0.100000E+01   0.000000E+00   0.000000E+00   0.100000E+01   0.000000E+00   0.000000E+00
  12   0.864976E-01   0.603056E-24   0.177649E-25  -0.137244E-25   0.100000E+01   0.000000E+00   0.000000E+00   0.100000E+01   0.000000E+00   0.000000E+00   0.100000E+01   0.000000E+00   0.000000E+00
  13   0.129746E+00   0.630341E-24   0.185646E-25  -0.143493E-25   0.100000E+01   0.000000E+00   0.000000E+00   0.100000E+01   0.000000E+00   0.000000E+00   0.100000E+01   0.000000E+00   0.000000E+00
  14   0.194620E+00   0.657717E-24   0.194339E-25  -0.147548E-25   0.100000E+01   0.000000E+00   0.000000E+00   0.100000E+01   0.000000E+00   0.000000E+00   0.100000E+01   0.000000E+00   0.000000E+00
  15   0.291929E+00   0.681524E-24   0.200097E-25  -0.154017E-25   0.100000E+01   0.000000E+00   0.000000E+00   0.100000E+01   0.000000E+00   0.000000E+00   0.100000E+01   0.000000E+00   0.000000E+00
  16   0.437894E+00   0.687343E-24   0.202433E-25  -0.156469E-25   0.100000E+01   0.000000E+00   0.000000E+00   0.100000E+01   0.000000E+00   0.000000E+00   0.100000E+01   0.000000E+00   0.000000E+00
  17   0.656841E+00   0.671198E-24   0.199449E-25  -0.151642E-25   0.100000E+01   0.000000E+00   0.000000E+00   0.100000E+01   0.000000E+00   0.000000E+00   0.100000E+01   0.000000E+00   0.000000E+00
  18   0.985261E+00   0.654294E-24   0.192145E-25  -0.147823E-25   0.100000E+01   0.000000E+00   0.000000E+00   0.100000E+01   0.000000E+00   0.000000E+00   0.100000E+01   0.000000E+00   0.000000E+00
  19   0.147789E+01   0.643013E-24   0.190036E-25  -0.144210E-25   0.977627E-21   0.395597E-22  -0.300376E-22   0.100000E+01   0.000000E+00   0.000000E+00   0.100000E+01   0.000000E+00   0.000000E+00
  20   0.150745E+01   0.642516E-24   0.188686E-25  -0.145162E-25   0.368720E-21   0.143811E-22  -0.109470E-22   0.100000E+01   0.000000E+00   0.000000E+00   0.100000E+01   0.000000E+00   0.000000E+00
  21   0.153760E+01   0.641896E-24   0.189581E-25  -0.144078E-25   0.142851E-21   0.537672E-23  -0.409914E-23   0.100000E+01   0.000000E+00   0.000000E+00   0.100000E+01   0.000000E+00   0.000000E+00
  22   0.156835E+01   0.641276E-24   0.189523E-25  -0.143820E-25   0.569499E-22   0.208378E-23  -0.157507E-23   0.100000E+01   0.000000E+00   0.000000E+00   0.100000E+01   0.000000E+00   0.000000E+00
  23   0.159972E+01   0.640657E-24   0.188098E-25  -0.144781E-25   0.234305E-22   0.825671E-24  -0.626583E-24   0.100000E+01   0.000000E+00   0.000000E+00   0.100000E+01   0.000000E+00   0.000000E+00
  24   0.163171E+01   0.639914E-24   0.188996E-25  -0.143634E-25   0.998876E-23   0.338587E-24  -0.258124E-24   0.100000E+01   0.000000E+00   0.000000E+00   0.100000E+01   0.000000E+00   0.000000E+00
  25   0.166435E+01   0.639173E-24   0.188860E-25  -0.143388E-25   0.444587E-23   0.145367E-24  -0.111464E-24   0.100000E+01   0.000000E+00   0.000000E+00   0.100000E+01   0.000000E+00   0.000000E+00
  26   0.169763E+01   0.638432E-24   0.187194E-25  -0.144517E-25   0.209448E-23   0.662859E-25  -0.504778E-25   0.100000E+01   0.000000E+00   0.000000E+00   0.100000E+01   0.000000E+00   0.000000E+00
  27   0.173159E+01   0.637446E-24   0.188143E-25  -0.143119E-25   0.107811E-23   0.327701E-25  -0.250880E-25   0.100000E+01   0.000000E+00   0.000000E+00   0.100000E+01   0.000000E+00   0.000000E+00
  28   0.176622E+01   0.636584E-24   0.186944E-25  -0.143821E-25   0.669635E-24   0.197987E-25  -0.152495E-25   0.100000E+01   0.000000E+00   0.000000E+00   0.100000E+01   0.000000E+00   0.000000E+00
  29   0.180154E+01   0.635478E-24   0.187190E-25  -0.143109E-25   0.635529E-24   0.186639E-25  -0.143578E-25   0.100000E+01   0.000000E+00   0.000000E+00   0.100000E+01   0.000000E+00   0.000000E+00
  30   0.183757E+01   0.634374E-24   0.187400E-25  -0.143322E-25   0.634373E-24   0.187380E-25  -0.142370E-25   0.100000E+01   0.000000E+00   0.000000E+00   0.100000E+01   0.000000E+00   0.000000E+00
  31   0.187432E+01   0.633272E-24   0.185403E-25  -0.144160E-25   0.633211E-24   0.185959E-25  -0.143054E-25   0.100000E+01   0.000000E+00   0.000000E+00   0.100000E+01   0.000000E+00   0.000000E+00
  32   0.191181E+01   0.631927E-24   0.186678E-25  -0.142769E-25   0.631926E-24   0.186574E-25  -0.142868E-25   0.100000E+01   0.000000E+00   0.000000E+00   0.100000E+01   0.000000E+00   0.000000E+00
  33   0.195005E+01   0.630585E-24   0.186076E-25  -0.141695E-25   0.630560E-24   0.186253E-25  -0.141515E-25   0.100000E+01   0.000000E+00   0.000000E+00   0.100000E+01   0.000000E+00   0.000000E+00
  34   0.198905E+01   0.629124E-24   0.185809E-25  -0.141212E-25   0.629116E-24   0.185827E-25  -0.141190E-25   0.100000E+01   0.000000E+00   0.000000E+00   0.100000E+01   0.000000E+00   0.000000E+00
  35   0.202883E+01   0.627667E-24   0.184802E-25  -0.142393E-25   0.627607E-24   0.185298E-25  -0.141891E-25   0.100000E+01   0.000000E+00   0.000000E+00   0.100000E+01   0.000000E+00   0.000000E+00
  36   0.206941E+01   0.625972E-24   0.184877E-25  -0.141463E-25   0.625967E-24   0.184814E-25  -0.141520E-25   0.100000E+01   0.000000E+00   0.000000E+00   0.100000E+01   0.000000E+00   0.000000E+00
  37   0.211079E+01   0.624280E-24   0.184296E-25  -0.141158E-25   0.624268E-24   0.184313E-25  -0.141136E-25   0.100000E+01   0.000000E+00   0.000000E+00   0.100000E+01   0.000000E+00   0.000000E+00
  38   0.215301E+01   0.622353E-24   0.184812E-25  -0.140722E-25   0.622433E-24   0.183255E-25  -0.141752E-25   0.100000E+01   0.000000E+00   0.000000E+00   0.100000E+01   0.000000E+00   0.000000E+00
  39   0.322951E+01   0.501043E-24   0.154094E-25  -0.118203E-25   0.501064E-24   0.153681E-25  -0.118606E-25   0.100000E+01   0.000000E+00   0.000000E+00   0.100000E+01   0.000000E+00   0.000000E+00
  40   0.484427E+01   0.372797E-24   0.111600E-25  -0.850051E-26   0.372811E-24   0.111106E-25  -0.848622E-26   0.100000E+01   0.000000E+00   0.000000E+00   0.100000E+01   0.000000E+00   0.000000E+00
  41   0.726641E+01   0.343006E-24   0.100730E-25  -0.774941E-26   0.343003E-24   0.100732E-25  -0.774909E-26   0.100000E+01   0.000000E+00   0.000000E+00   0.100000E+01   0.000000E+00   0.000000E+00
  42   0.108996E+02   0.332627E-24   0.977033E-26  -0.746195E-26   0.332685E-24   0.971028E-26  -0.751780E-26   0.100000E+01   0.000000E+00   0.000000E+00   0.100000E+01   0.000000E+00   0.000000E+00
  43   0.163494E+02   0.329238E-24   0.961554E-26  -0.738388E-26   0.329207E-24   0.967039E-26  -0.738473E-26   0.100000E+01   0.000000E+00   0.000000E+00   0.100000E+01   0.000000E+00   0.000000E+00
  44   0.245241E+02   0.329365E-24   0.961926E-26  -0.738674E-26   0.329334E-24   0.961249E-26  -0.733307E-26   0.100000E+01   0.000000E+00   0.000000E+00   0.100000E+01   0.000000E+00   0.000000E+00
  45   0.367862E+02   0.331664E-24   0.962862E-26  -0.743830E-26   0.331612E-24   0.967899E-26  -0.738378E-26   0.100000E+01   0.000000E+00   0.000000E+00   0.100000E+01   0.000000E+00   0.000000E+00
  46   0.551793E+02   0.336831E-24   0.971995E-26  -0.755419E-26   0.336833E-24   0.976128E-26  -0.751090E-26   0.100000E+01   0.000000E+00   0.000000E+00   0.100000E+01   0.000000E+00   0.000000E+00
  47   0.562829E+02   0.337157E-24   0.976619E-26  -0.752244E-26   0.337137E-24   0.978344E-26  -0.750500E-26   0.100000E+01   0.000000E+00   0.000000E+00   0.100000E+01   0.000000E+00   0.000000E+00
  48   0.574085E+02   0.337483E-24   0.979320E-26  -0.751295E-26   0.337480E-24   0.979339E-26  -0.751263E-26   0.100000E+01   0.000000E+00   0.000000E+00   0.100000E+01   0.000000E+00   0.000000E+00
  49   0.585567E+02   0.337809E-24   0.980048E-26  -0.752228E-26   0.337804E-24   0.980280E-26  -0.751985E-26   0.100000E+01   0.000000E+00   0.000000E+00   0.100000E+01   0.000000E+00   0.000000E+00
  50   0.597278E+02   0.338201E-24   0.978130E-26  -0.756006E-26   0.338167E-24   0.981331E-26  -0.752791E-26   0.100000E+01   0.000000E+00   0.000000E+00   0.965442E-18   0.465665E-19  -0.353015E-19
  51   0.609224E+02   0.338528E-24   0.982352E-26  -0.753621E-26   0.338525E-24   0.982372E-26  -0.753590E-26   0.100000E+01   0.000000E+00   0.000000E+00   0.282034E-18   0.131912E-19  -0.100364E-19
  52   0.621408E+02   0.338921E-24   0.978024E-26  -0.760104E-26   0.338922E-24   0.976706E-26  -0.761367E-26   0.100000E+01   0.000000E+00   0.000000E+00   0.845847E-19   0.380638E-20  -0.289944E-20
  53   0.633836E+02   0.339248E-24   0.984935E-26  -0.756014E-26   0.339250E-24   0.984476E-26  -0.755204E-26   0.100000E+01   0.000000E+00   0.000000E+00   0.260433E-19   0.113923E-20  -0.862899E-21
  54   0.646513E+02   0.339642E-24   0.985366E-26  -0.756309E-26   0.339637E-24   0.985598E-26  -0.756065E-26   0.100000E+01   0.000000E+00   0.000000E+00   0.823531E-20   0.347906E-21  -0.263564E-21
  55   0.659443E+02   0.340036E-24   0.986070E-26  -0.757604E-26   0.340027E-24   0.986729E-26  -0.756932E-26   0.100000E+01   0.000000E+00   0.000000E+00   0.267452E-20   0.109709E-21  -0.834346E-22
  56   0.672632E+02   0.340430E-24   0.982159E-26  -0.763701E-26   0.340430E-24   0.986551E-26  -0.759110E-26   0.100000E+01   0.000000E+00   0.000000E+00   0.892404E-21   0.354663E-22  -0.267438E-22
  57   0.686085E+02   0.340825E-24   0.987479E-26  -0.760199E-26   0.340808E-24   0.988995E-26  -0.758670E-26   0.100000E+01   0.000000E+00   0.000000E+00   0.306288E-21   0.117307E-22  -0.889211E-23
  58   0.699807E+02   0.341221E-24   0.984440E-26  -0.765474E-26   0.341220E-24   0.988841E-26  -0.760873E-26   0.100000E+01   0.000000E+00   0.000000E+00   0.108257E-21   0.397148E-23  -0.305554E-23
  59   0.713803E+02   0.341616E-24   0.990654E-26  -0.761126E-26   0.341607E-24   0.991316E-26  -0.760451E-26   0.100000E+01   0.000000E+00   0.000000E+00   0.394645E-22   0.140063E-23  -0.106779E-23
  60   0.728079E+02   0.342013E-24   0.992244E-26  -0.761589E-26   0.342008E-24   0.992478E-26  -0.761343E-26   0.100000E+01   0.000000E+00   0.000000E+00   0.148901E-22   0.509974E-24  -0.390611E-24
  61   0.742640E+02   0.342410E-24   0.991647E-26  -0.759723E-26   0.342448E-24   0.992401E-26  -0.763611E-26   0.100000E+01   0.000000E+00   0.000000E+00   0.584285E-23   0.193602E-24  -0.148416E-24
  62   0.757493E+02   0.342807E-24   0.995866E-26  -0.757682E-26   0.342875E-24   0.993638E-26  -0.764563E-26   0.100000E+01   0.000000E+00   0.000000E+00   0.240620E-23   0.765556E-25  -0.587538E-25
  63   0.772643E+02   0.343271E-24   0.996116E-26  -0.764180E-26   0.343268E-24   0.996135E-26  -0.764148E-26   0.100000E+01   0.000000E+00   0.000000E+00   0.105842E-23   0.325637E-25  -0.249994E-25
  64   0.788096E+02   0.343735E-24   0.991248E-26  -0.771540E-26   0.343731E-24   0.990562E-26  -0.772168E-26   0.100000E+01   0.000000E+00   0.000000E+00   0.519881E-24   0.154055E-25  -0.118315E-25
  65   0.803858E+02   0.344134E-24   0.997076E-26  -0.763135E-26   0.344119E-24   0.998604E-26  -0.766041E-26   0.100000E+01   0.000000E+00   0.000000E+00   0.344134E-24   0.998399E-26  -0.766313E-26
  66   0.819935E+02   0.344538E-24   0.100095E-25  -0.761455E-26   0.344549E-24   0.100117E-25  -0.761295E-26   0.100000E+01   0.000000E+00   0.000000E+00   0.344533E-24   0.100380E-25  -0.764435E-26
  67   0.836334E+02   0.344979E-24   0.100223E-25  -0.762430E-26   0.345048E-24   0.993926E-26  -0.769408E-26   0.100000E+01   0.000000E+00   0.000000E+00   0.345000E-24   0.100113E-25  -0.768029E-26
  68   0.853060E+02   0.345465E-24   0.100251E-25  -0.769038E-26   0.345462E-24   0.100250E-25  -0.769032E-26   0.100000E+01   0.000000E+00   0.000000E+00   0.345467E-24   0.100227E-25  -0.769281E-26
  69   0.870122E+02   0.345930E-24   0.997835E-26  -0.770074E-26   0.345930E-24   0.100249E-25  -0.771375E-26   0.100000E+01   0.000000E+00   0.000000E+00   0.345934E-24   0.997820E-26  -0.770110E-26
  70   0.887524E+02   0.346403E-24   0.100055E-25  -0.771121E-26   0.346357E-24   0.100039E-25  -0.765292E-26   0.100000E+01   0.000000E+00   0.000000E+00   0.346403E-24   0.998500E-26  -0.771790E-26
  71   0.905275E+02   0.346865E-24   0.100188E-25  -0.772150E-26   0.346820E-24   0.100644E-25  -0.772054E-26   0.100000E+01   0.000000E+00   0.000000E+00   0.346805E-24   0.100748E-25  -0.766518E-26
  72   0.923380E+02   0.347285E-24   0.100307E-25  -0.767342E-26   0.347291E-24   0.100778E-25  -0.768652E-26   0.100000E+01   0.000000E+00   0.000000E+00   0.347274E-24   0.100907E-25  -0.767344E-26
  73   0.941848E+02   0.347757E-24   0.100444E-25  -0.768385E-26   0.347763E-24   0.100915E-25  -0.769697E-26   0.100000E+01   0.000000E+00   0.000000E+00   0.347744E-24   0.100830E-25  -0.769141E-26
  74   0.960685E+02   0.348266E-24   0.100593E-25  -0.775268E-26   0.348279E-24   0.100323E-25  -0.776613E-26   0.100000E+01   0.000000E+00   0.000000E+00   0.348282E-24   0.100302E-25  -0.776831E-26
  75   0.979898E+02   0.348738E-24   0.100729E-25  -0.776320E-26   0.348752E-24   0.100459E-25  -0.777666E-26   0.100000E+01   0.000000E+00   0.000000E+00   0.348754E-24   0.100595E-25  -0.776385E-26
  76   0.146985E+03   0.359178E-24   0.103722E-25  -0.793811E-26   0.359182E-24   0.103602E-25  -0.794970E-26   0.492223E-21   0.188561E-22  -0.142862E-22   0.359219E-24   0.103590E-25  -0.795268E-26
  77   0.149924E+03   0.359757E-24   0.103772E-25  -0.800853E-26   0.359757E-24   0.103768E-25  -0.796242E-26   0.167153E-21   0.616420E-23  -0.474541E-23   0.359774E-24   0.103567E-25  -0.798251E-26
  78   0.152923E+03   0.360295E-24   0.103927E-25  -0.802052E-26   0.360295E-24   0.103924E-25  -0.797434E-26   0.585569E-22   0.209708E-23  -0.159168E-23   0.360261E-24   0.104052E-25  -0.796041E-26
  79   0.155981E+03   0.360817E-24   0.104216E-25  -0.797241E-26   0.360823E-24   0.104076E-25  -0.798602E-26   0.212397E-22   0.728546E-24  -0.558359E-24   0.360819E-24   0.104213E-25  -0.797272E-26
  80   0.159101E+03   0.361375E-24   0.104377E-25  -0.798474E-26   0.361381E-24   0.104237E-25  -0.799837E-26   0.800917E-23   0.265383E-24  -0.203443E-24   0.361377E-24   0.104375E-25  -0.798506E-26
  81   0.162283E+03   0.361934E-24   0.104400E-25  -0.805700E-26   0.361934E-24   0.104396E-25  -0.801061E-26   0.316595E-23   0.101281E-24  -0.773049E-25   0.361936E-24   0.104398E-25  -0.805732E-26
  82   0.165529E+03   0.362488E-24   0.104560E-25  -0.806932E-26   0.362488E-24   0.104556E-25  -0.802286E-26   0.133362E-23   0.410147E-25  -0.316997E-25   0.362496E-24   0.104559E-25  -0.806979E-26
  83   0.168839E+03   0.362987E-24   0.105342E-25  -0.801985E-26   0.363049E-24   0.104578E-25  -0.809547E-26   0.621682E-24   0.184704E-25  -0.142541E-25   0.363044E-24   0.104700E-25  -0.808366E-26
  84   0.172216E+03   0.363596E-24   0.104879E-25  -0.809399E-26   0.363596E-24   0.104876E-25  -0.804738E-26   0.369987E-24   0.106723E-25  -0.823627E-26   0.363592E-24   0.104878E-25  -0.809391E-26
  85   0.175660E+03   0.364147E-24   0.105038E-25  -0.810625E-26   0.364147E-24   0.105035E-25  -0.805958E-26   0.364139E-24   0.105032E-25  -0.805942E-26   0.364131E-24   0.105030E-25  -0.805924E-26
  86   0.179174E+03   0.364678E-24   0.105331E-25  -0.805773E-26   0.364684E-24   0.105190E-25  -0.807149E-26   0.364676E-24   0.105187E-25  -0.807132E-26   0.364669E-24   0.105185E-25  -0.807114E-26
  87   0.182757E+03   0.365217E-24   0.105487E-25  -0.806963E-26   0.365223E-24   0.105345E-25  -0.808341E-26   0.365215E-24   0.105343E-25  -0.808324E-26   0.365207E-24   0.105340E-25  -0.808306E-26
  88   0.186412E+03   0.365818E-24   0.104863E-25  -0.814543E-26   0.365809E-24   0.105517E-25  -0.814325E-26   0.365809E-24   0.105514E-25  -0.809636E-26   0.365801E-24   0.105512E-25  -0.809620E-26
  89   0.190140E+03   0.366351E-24   0.105674E-25  -0.815532E-26   0.366351E-24   0.105670E-25  -0.810836E-26   0.366343E-24   0.105668E-25  -0.810820E-26   0.366335E-24   0.105666E-25  -0.810802E-26
  90   0.193943E+03   0.366886E-24   0.105969E-25  -0.810650E-26   0.366892E-24   0.105826E-25  -0.812035E-26   0.366884E-24   0.105824E-25  -0.812017E-26   0.366876E-24   0.105822E-25  -0.811999E-26
  91   0.197822E+03   0.367427E-24   0.106125E-25  -0.811847E-26   0.367433E-24   0.105983E-25  -0.813234E-26   0.367425E-24   0.105980E-25  -0.813216E-26   0.367417E-24   0.105978E-25  -0.813198E-26
  92   0.201779E+03   0.368032E-24   0.106138E-25  -0.819473E-26   0.368030E-24   0.106155E-25  -0.814554E-26   0.368022E-24   0.106152E-25  -0.814537E-26   0.368014E-24   0.106150E-25  -0.814519E-26
  93   0.205814E+03   0.368568E-24   0.106454E-25  -0.814367E-26   0.368574E-24   0.106312E-25  -0.815757E-26   0.368566E-24   0.106309E-25  -0.815740E-26   0.368558E-24   0.106307E-25  -0.815722E-26
  94   0.209930E+03   0.369112E-24   0.106612E-25  -0.815569E-26   0.369118E-24   0.106468E-25  -0.816962E-26   0.369110E-24   0.106466E-25  -0.816944E-26   0.369102E-24   0.106464E-25  -0.816926E-26
  95   0.314896E+03   0.380070E-24   0.109777E-25  -0.839782E-26   0.380076E-24   0.109629E-25  -0.841216E-26   0.380068E-24   0.109627E-25  -0.841197E-26   0.380060E-24   0.109625E-25  -0.841179E-26
  96   0.472343E+03   0.388908E-24   0.111654E-25  -0.865746E-26   0.388915E-24   0.111654E-25  -0.859325E-26   0.388863E-24   0.112164E-25  -0.860663E-26   0.388855E-24   0.112161E-25  -0.860646E-26
  97   0.708515E+03   0.394285E-24   0.113860E-25  -0.871402E-26   0.394290E-24   0.114266E-25  -0.866136E-26   0.394333E-24   0.113742E-25  -0.872770E-26   0.394325E-24   0.113739E-25  -0.872751E-26
  98   0.106277E+04   0.396795E-24   0.114607E-25  -0.876737E-26   0.396802E-24   0.114454E-25  -0.878234E-26   0.396793E-24   0.114451E-25  -0.878215E-26   0.396784E-24   0.114449E-25  -0.878195E-26
