# Thermal sigma v for some different final states
# The final states are:
# Case 1: PDG = 12
# Case 2: PDG = 15
# Case 3: PDG =  6
# Case 4: PDG = 24
#  i     Mass [GeV]      sigvmid_1     sigvperr_1     sigvmerr_1      sigvmid_2     sigvperr_2     sigvmerr_2      sigvmid_3     sigvperr_3     sigvmerr_3      sigvmid_4     sigvperr_4     sigvmerr_4, sigv in units of cm^3/s^1
   1   0.100000E-02   0.602706E-24   0.184554E-25  -0.141190E-25   0.100000E+01   0.000000E+00   0.000000E+00   0.100000E+01   0.000000E+00   0.000000E+00   0.100000E+01   0.000000E+00   0.000000E+00
   2   0.110000E-02   0.604806E-24   0.185435E-25  -0.141224E-25   0.100000E+01   0.000000E+00   0.000000E+00   0.100000E+01   0.000000E+00   0.000000E+00   0.100000E+01   0.000000E+00   0.000000E+00
   3   0.121000E-02   0.604689E-24   0.184957E-25  -0.142615E-25   0.100000E+01   0.000000E+00   0.000000E+00   0.100000E+01   0.000000E+00   0.000000E+00   0.100000E+01   0.000000E+00   0.000000E+00
   4   0.133100E-02   0.601659E-24   0.185325E-25  -0.140906E-25   0.100000E+01   0.000000E+00   0.000000E+00   0.100000E+01   0.000000E+00   0.000000E+00   0.100000E+01   0.000000E+00   0.000000E+00
   5   0.146410E-02   0.595643E-24   0.183229E-25  -0.140482E-25   0.100000E+01   0.000000E+00   0.000000E+00   0.100000E+01   0.000000E+00   0.000000E+00   0.100000E+01   0.000000E+00   0.000000E+00
   6   0.161051E-02   0.586506E-24   0.181522E-25  -0.139296E-25   0.100000E+01   0.000000E+00   0.000000E+00   0.100000E+01   0.000000E+00   0.000000E+00   0.100000E+01   0.000000E+00   0.000000E+00
   7   0.177156E-02   0.574281E-24   0.177620E-25  -0.136505E-25   0.100000E+01   0.000000E+00   0.000000E+00   0.100000E+01   0.000000E+00   0.000000E+00   0.100000E+01   0.000000E+00   0.000000E+00
   8   0.194872E-02   0.559494E-24   0.174139E-25  -0.132880E-25   0.100000E+01   0.000000E+00   0.000000E+00   0.100000E+01   0.000000E+00   0.000000E+00   0.100000E+01   0.000000E+00   0.000000E+00
   9   0.214359E-02   0.539637E-24   0.167846E-25  -0.129092E-25   0.100000E+01   0.000000E+00   0.000000E+00   0.100000E+01   0.000000E+00   0.000000E+00   0.100000E+01   0.000000E+00   0.000000E+00
  10   0.235795E-02   0.522702E-24   0.162687E-25  -0.124142E-25   0.100000E+01   0.000000E+00   0.000000E+00   0.100000E+01   0.000000E+00   0.000000E+00   0.100000E+01   0.000000E+00   0.000000E+00
  11   0.259374E-02   0.506396E-24   0.157613E-25  -0.120270E-25   0.100000E+01   0.000000E+00   0.000000E+00   0.100000E+01   0.000000E+00   0.000000E+00   0.100000E+01   0.000000E+00   0.000000E+00
  12   0.285312E-02   0.491549E-24   0.152133E-25  -0.116743E-25   0.100000E+01   0.000000E+00   0.000000E+00   0.100000E+01   0.000000E+00   0.000000E+00   0.100000E+01   0.000000E+00   0.000000E+00
  13   0.313843E-02   0.478984E-24   0.148244E-25  -0.113759E-25   0.100000E+01   0.000000E+00   0.000000E+00   0.100000E+01   0.000000E+00   0.000000E+00   0.100000E+01   0.000000E+00   0.000000E+00
  14   0.345227E-02   0.469091E-24   0.144300E-25  -0.110634E-25   0.100000E+01   0.000000E+00   0.000000E+00   0.100000E+01   0.000000E+00   0.000000E+00   0.100000E+01   0.000000E+00   0.000000E+00
  15   0.379750E-02   0.461806E-24   0.142153E-25  -0.108242E-25   0.100000E+01   0.000000E+00   0.000000E+00   0.100000E+01   0.000000E+00   0.000000E+00   0.100000E+01   0.000000E+00   0.000000E+00
  16   0.417725E-02   0.456923E-24   0.139945E-25  -0.107009E-25   0.100000E+01   0.000000E+00   0.000000E+00   0.100000E+01   0.000000E+00   0.000000E+00   0.100000E+01   0.000000E+00   0.000000E+00
  17   0.459497E-02   0.454019E-24   0.138171E-25  -0.106417E-25   0.100000E+01   0.000000E+00   0.000000E+00   0.100000E+01   0.000000E+00   0.000000E+00   0.100000E+01   0.000000E+00   0.000000E+00
  18   0.505447E-02   0.452705E-24   0.137680E-25  -0.105273E-25   0.100000E+01   0.000000E+00   0.000000E+00   0.100000E+01   0.000000E+00   0.000000E+00   0.100000E+01   0.000000E+00   0.000000E+00
  19   0.555992E-02   0.452792E-24   0.136886E-25  -0.105322E-25   0.100000E+01   0.000000E+00   0.000000E+00   0.100000E+01   0.000000E+00   0.000000E+00   0.100000E+01   0.000000E+00   0.000000E+00
  20   0.611591E-02   0.454019E-24   0.136404E-25  -0.105666E-25   0.100000E+01   0.000000E+00   0.000000E+00   0.100000E+01   0.000000E+00   0.000000E+00   0.100000E+01   0.000000E+00   0.000000E+00
  21   0.672750E-02   0.456041E-24   0.137960E-25  -0.105295E-25   0.100000E+01   0.000000E+00   0.000000E+00   0.100000E+01   0.000000E+00   0.000000E+00   0.100000E+01   0.000000E+00   0.000000E+00
  22   0.740025E-02   0.458781E-24   0.138758E-25  -0.105957E-25   0.100000E+01   0.000000E+00   0.000000E+00   0.100000E+01   0.000000E+00   0.000000E+00   0.100000E+01   0.000000E+00   0.000000E+00
  23   0.814027E-02   0.462163E-24   0.138797E-25  -0.106849E-25   0.100000E+01   0.000000E+00   0.000000E+00   0.100000E+01   0.000000E+00   0.000000E+00   0.100000E+01   0.000000E+00   0.000000E+00
  24   0.895430E-02   0.466019E-24   0.140166E-25  -0.107599E-25   0.100000E+01   0.000000E+00   0.000000E+00   0.100000E+01   0.000000E+00   0.000000E+00   0.100000E+01   0.000000E+00   0.000000E+00
  25   0.984973E-02   0.470271E-24   0.141351E-25  -0.107832E-25   0.100000E+01   0.000000E+00   0.000000E+00   0.100000E+01   0.000000E+00   0.000000E+00   0.100000E+01   0.000000E+00   0.000000E+00
  26   0.108347E-01   0.474928E-24   0.142017E-25  -0.109656E-25   0.100000E+01   0.000000E+00   0.000000E+00   0.100000E+01   0.000000E+00   0.000000E+00   0.100000E+01   0.000000E+00   0.000000E+00
  27   0.119182E-01   0.479817E-24   0.143447E-25  -0.110815E-25   0.100000E+01   0.000000E+00   0.000000E+00   0.100000E+01   0.000000E+00   0.000000E+00   0.100000E+01   0.000000E+00   0.000000E+00
  28   0.131100E-01   0.484851E-24   0.145144E-25  -0.110556E-25   0.100000E+01   0.000000E+00   0.000000E+00   0.100000E+01   0.000000E+00   0.000000E+00   0.100000E+01   0.000000E+00   0.000000E+00
  29   0.144210E-01   0.490126E-24   0.147322E-25  -0.112004E-25   0.100000E+01   0.000000E+00   0.000000E+00   0.100000E+01   0.000000E+00   0.000000E+00   0.100000E+01   0.000000E+00   0.000000E+00
  30   0.158631E-01   0.495650E-24   0.148115E-25  -0.113652E-25   0.100000E+01   0.000000E+00   0.000000E+00   0.100000E+01   0.000000E+00   0.000000E+00   0.100000E+01   0.000000E+00   0.000000E+00
  31   0.174494E-01   0.501237E-24   0.149718E-25  -0.114996E-25   0.100000E+01   0.000000E+00   0.000000E+00   0.100000E+01   0.000000E+00   0.000000E+00   0.100000E+01   0.000000E+00   0.000000E+00
  32   0.191943E-01   0.506984E-24   0.150652E-25  -0.116219E-25   0.100000E+01   0.000000E+00   0.000000E+00   0.100000E+01   0.000000E+00   0.000000E+00   0.100000E+01   0.000000E+00   0.000000E+00
  33   0.211138E-01   0.512698E-24   0.152350E-25  -0.117528E-25   0.100000E+01   0.000000E+00   0.000000E+00   0.100000E+01   0.000000E+00   0.000000E+00   0.100000E+01   0.000000E+00   0.000000E+00
  34   0.232252E-01   0.518477E-24   0.155450E-25  -0.117995E-25   0.100000E+01   0.000000E+00   0.000000E+00   0.100000E+01   0.000000E+00   0.000000E+00   0.100000E+01   0.000000E+00   0.000000E+00
  35   0.255477E-01   0.524321E-24   0.157202E-25  -0.119325E-25   0.100000E+01   0.000000E+00   0.000000E+00   0.100000E+01   0.000000E+00   0.000000E+00   0.100000E+01   0.000000E+00   0.000000E+00
  36   0.281024E-01   0.530230E-24   0.158047E-25  -0.120670E-25   0.100000E+01   0.000000E+00   0.000000E+00   0.100000E+01   0.000000E+00   0.000000E+00   0.100000E+01   0.000000E+00   0.000000E+00
  37   0.309127E-01   0.536206E-24   0.158893E-25  -0.122030E-25   0.100000E+01   0.000000E+00   0.000000E+00   0.100000E+01   0.000000E+00   0.000000E+00   0.100000E+01   0.000000E+00   0.000000E+00
  38   0.340039E-01   0.542145E-24   0.161563E-25  -0.123416E-25   0.100000E+01   0.000000E+00   0.000000E+00   0.100000E+01   0.000000E+00   0.000000E+00   0.100000E+01   0.000000E+00   0.000000E+00
  39   0.374043E-01   0.548256E-24   0.163312E-25  -0.124876E-25   0.100000E+01   0.000000E+00   0.000000E+00   0.100000E+01   0.000000E+00   0.000000E+00   0.100000E+01   0.000000E+00   0.000000E+00
  40   0.411448E-01   0.554435E-24   0.164258E-25  -0.126214E-25   0.100000E+01   0.000000E+00   0.000000E+00   0.100000E+01   0.000000E+00   0.000000E+00   0.100000E+01   0.000000E+00   0.000000E+00
  41   0.452593E-01   0.560576E-24   0.167093E-25  -0.127576E-25   0.100000E+01   0.000000E+00   0.000000E+00   0.100000E+01   0.000000E+00   0.000000E+00   0.100000E+01   0.000000E+00   0.000000E+00
  42   0.497852E-01   0.566785E-24   0.168092E-25  -0.128366E-25   0.100000E+01   0.000000E+00   0.000000E+00   0.100000E+01   0.000000E+00   0.000000E+00   0.100000E+01   0.000000E+00   0.000000E+00
  43   0.547637E-01   0.573062E-24   0.169814E-25  -0.130418E-25   0.100000E+01   0.000000E+00   0.000000E+00   0.100000E+01   0.000000E+00   0.000000E+00   0.100000E+01   0.000000E+00   0.000000E+00
  44   0.602401E-01   0.579297E-24   0.171662E-25  -0.131837E-25   0.100000E+01   0.000000E+00   0.000000E+00   0.100000E+01   0.000000E+00   0.000000E+00   0.100000E+01   0.000000E+00   0.000000E+00
  45   0.662641E-01   0.585487E-24   0.173226E-25  -0.133503E-25   0.100000E+01   0.000000E+00   0.000000E+00   0.100000E+01   0.000000E+00   0.000000E+00   0.100000E+01   0.000000E+00   0.000000E+00
  46   0.728905E-01   0.591743E-24   0.175350E-25  -0.134669E-25   0.100000E+01   0.000000E+00   0.000000E+00   0.100000E+01   0.000000E+00   0.000000E+00   0.100000E+01   0.000000E+00   0.000000E+00
  47   0.801795E-01   0.598065E-24   0.176140E-25  -0.136146E-25   0.100000E+01   0.000000E+00   0.000000E+00   0.100000E+01   0.000000E+00   0.000000E+00   0.100000E+01   0.000000E+00   0.000000E+00
  48   0.881975E-01   0.604339E-24   0.178963E-25  -0.137650E-25   0.100000E+01   0.000000E+00   0.000000E+00   0.100000E+01   0.000000E+00   0.000000E+00   0.100000E+01   0.000000E+00   0.000000E+00
  49   0.970172E-01   0.610678E-24   0.180921E-25  -0.139017E-25   0.100000E+01   0.000000E+00   0.000000E+00   0.100000E+01   0.000000E+00   0.000000E+00   0.100000E+01   0.000000E+00   0.000000E+00
  50   0.106719E+00   0.617084E-24   0.182575E-25  -0.140707E-25   0.100000E+01   0.000000E+00   0.000000E+00   0.100000E+01   0.000000E+00   0.000000E+00   0.100000E+01   0.000000E+00   0.000000E+00
  51   0.117391E+00   0.623557E-24   0.183647E-25  -0.141949E-25   0.100000E+01   0.000000E+00   0.000000E+00   0.100000E+01   0.000000E+00   0.000000E+00   0.100000E+01   0.000000E+00   0.000000E+00
  52   0.129130E+00   0.629976E-24   0.186101E-25  -0.142328E-25   0.100000E+01   0.000000E+00   0.000000E+00   0.100000E+01   0.000000E+00   0.000000E+00   0.100000E+01   0.000000E+00   0.000000E+00
  53   0.142043E+00   0.636461E-24   0.187810E-25  -0.143016E-25   0.100000E+01   0.000000E+00   0.000000E+00   0.100000E+01   0.000000E+00   0.000000E+00   0.100000E+01   0.000000E+00   0.000000E+00
  54   0.156247E+00   0.643013E-24   0.189953E-25  -0.145274E-25   0.100000E+01   0.000000E+00   0.000000E+00   0.100000E+01   0.000000E+00   0.000000E+00   0.100000E+01   0.000000E+00   0.000000E+00
  55   0.171872E+00   0.649507E-24   0.190739E-25  -0.146741E-25   0.100000E+01   0.000000E+00   0.000000E+00   0.100000E+01   0.000000E+00   0.000000E+00   0.100000E+01   0.000000E+00   0.000000E+00
  56   0.189059E+00   0.655940E-24   0.191954E-25  -0.149403E-25   0.100000E+01   0.000000E+00   0.000000E+00   0.100000E+01   0.000000E+00   0.000000E+00   0.100000E+01   0.000000E+00   0.000000E+00
  57   0.207965E+00   0.662052E-24   0.195534E-25  -0.148603E-25   0.100000E+01   0.000000E+00   0.000000E+00   0.100000E+01   0.000000E+00   0.000000E+00   0.100000E+01   0.000000E+00   0.000000E+00
  58   0.228762E+00   0.668093E-24   0.197448E-25  -0.149835E-25   0.100000E+01   0.000000E+00   0.000000E+00   0.100000E+01   0.000000E+00   0.000000E+00   0.100000E+01   0.000000E+00   0.000000E+00
  59   0.251638E+00   0.673797E-24   0.197872E-25  -0.152229E-25   0.100000E+01   0.000000E+00   0.000000E+00   0.100000E+01   0.000000E+00   0.000000E+00   0.100000E+01   0.000000E+00   0.000000E+00
  60   0.276801E+00   0.678895E-24   0.200597E-25  -0.152299E-25   0.100000E+01   0.000000E+00   0.000000E+00   0.100000E+01   0.000000E+00   0.000000E+00   0.100000E+01   0.000000E+00   0.000000E+00
  61   0.304482E+00   0.683370E-24   0.201561E-25  -0.154689E-25   0.100000E+01   0.000000E+00   0.000000E+00   0.100000E+01   0.000000E+00   0.000000E+00   0.100000E+01   0.000000E+00   0.000000E+00
  62   0.334930E+00   0.686679E-24   0.201655E-25  -0.155139E-25   0.100000E+01   0.000000E+00   0.000000E+00   0.100000E+01   0.000000E+00   0.000000E+00   0.100000E+01   0.000000E+00   0.000000E+00
  63   0.368423E+00   0.688406E-24   0.203317E-25  -0.155572E-25   0.100000E+01   0.000000E+00   0.000000E+00   0.100000E+01   0.000000E+00   0.000000E+00   0.100000E+01   0.000000E+00   0.000000E+00
  64   0.405265E+00   0.688539E-24   0.202831E-25  -0.156699E-25   0.100000E+01   0.000000E+00   0.000000E+00   0.100000E+01   0.000000E+00   0.000000E+00   0.100000E+01   0.000000E+00   0.000000E+00
  65   0.445792E+00   0.686945E-24   0.202361E-25  -0.156336E-25   0.100000E+01   0.000000E+00   0.000000E+00   0.100000E+01   0.000000E+00   0.000000E+00   0.100000E+01   0.000000E+00   0.000000E+00
  66   0.490371E+00   0.684030E-24   0.202697E-25  -0.155672E-25   0.100000E+01   0.000000E+00   0.000000E+00   0.100000E+01   0.000000E+00   0.000000E+00   0.100000E+01   0.000000E+00   0.000000E+00
  67   0.539408E+00   0.680208E-24   0.201457E-25  -0.154312E-25   0.100000E+01   0.000000E+00   0.000000E+00   0.100000E+01   0.000000E+00   0.000000E+00   0.100000E+01   0.000000E+00   0.000000E+00
  68   0.593349E+00   0.676015E-24   0.200215E-25  -0.153361E-25   0.100000E+01   0.000000E+00   0.000000E+00   0.100000E+01   0.000000E+00   0.000000E+00   0.100000E+01   0.000000E+00   0.000000E+00
  69   0.652683E+00   0.671588E-24   0.197793E-25  -0.152883E-25   0.100000E+01   0.000000E+00   0.000000E+00   0.100000E+01   0.000000E+00   0.000000E+00   0.100000E+01   0.000000E+00   0.000000E+00
  70   0.717952E+00   0.667190E-24   0.196410E-25  -0.151965E-25   0.100000E+01   0.000000E+00   0.000000E+00   0.100000E+01   0.000000E+00   0.000000E+00   0.100000E+01   0.000000E+00   0.000000E+00
  71   0.789747E+00   0.662949E-24   0.195293E-25  -0.150875E-25   0.100000E+01   0.000000E+00   0.000000E+00   0.100000E+01   0.000000E+00   0.000000E+00   0.100000E+01   0.000000E+00   0.000000E+00
  72   0.868722E+00   0.658989E-24   0.193996E-25  -0.150097E-25   0.100000E+01   0.000000E+00   0.000000E+00   0.100000E+01   0.000000E+00   0.000000E+00   0.100000E+01   0.000000E+00   0.000000E+00
  73   0.955594E+00   0.655306E-24   0.193584E-25  -0.148051E-25   0.100000E+01   0.000000E+00   0.000000E+00   0.100000E+01   0.000000E+00   0.000000E+00   0.100000E+01   0.000000E+00   0.000000E+00
  74   0.105115E+01   0.652148E-24   0.191472E-25  -0.147378E-25   0.100000E+01   0.000000E+00   0.000000E+00   0.100000E+01   0.000000E+00   0.000000E+00   0.100000E+01   0.000000E+00   0.000000E+00
  75   0.115627E+01   0.649382E-24   0.191349E-25  -0.146282E-25   0.100000E+01   0.000000E+00   0.000000E+00   0.100000E+01   0.000000E+00   0.000000E+00   0.100000E+01   0.000000E+00   0.000000E+00
  76   0.117939E+01   0.648880E-24   0.190427E-25  -0.146720E-25   0.100000E+01   0.000000E+00   0.000000E+00   0.100000E+01   0.000000E+00   0.000000E+00   0.100000E+01   0.000000E+00   0.000000E+00
  77   0.120298E+01   0.648253E-24   0.190371E-25  -0.146458E-25   0.100000E+01   0.000000E+00   0.000000E+00   0.100000E+01   0.000000E+00   0.000000E+00   0.100000E+01   0.000000E+00   0.000000E+00
  78   0.122704E+01   0.647752E-24   0.190224E-25  -0.146345E-25   0.100000E+01   0.000000E+00   0.000000E+00   0.100000E+01   0.000000E+00   0.000000E+00   0.100000E+01   0.000000E+00   0.000000E+00
  79   0.125158E+01   0.647252E-24   0.190077E-25  -0.146231E-25   0.100000E+01   0.000000E+00   0.000000E+00   0.100000E+01   0.000000E+00   0.000000E+00   0.100000E+01   0.000000E+00   0.000000E+00
  80   0.127661E+01   0.646752E-24   0.189930E-25  -0.146118E-25   0.100000E+01   0.000000E+00   0.000000E+00   0.100000E+01   0.000000E+00   0.000000E+00   0.100000E+01   0.000000E+00   0.000000E+00
  81   0.130215E+01   0.646252E-24   0.189783E-25  -0.146006E-25   0.900562E-18   0.453180E-19  -0.338101E-19   0.100000E+01   0.000000E+00   0.000000E+00   0.100000E+01   0.000000E+00   0.000000E+00
  82   0.132819E+01   0.645753E-24   0.189637E-25  -0.145893E-25   0.289881E-18   0.140660E-19  -0.106169E-19   0.100000E+01   0.000000E+00   0.000000E+00   0.100000E+01   0.000000E+00   0.000000E+00
  83   0.135475E+01   0.645254E-24   0.189490E-25  -0.145780E-25   0.956091E-19   0.446976E-20  -0.340419E-20   0.100000E+01   0.000000E+00   0.000000E+00   0.100000E+01   0.000000E+00   0.000000E+00
  84   0.138185E+01   0.644755E-24   0.190551E-25  -0.144601E-25   0.323112E-19   0.146318E-20  -0.111815E-20   0.100000E+01   0.000000E+00   0.000000E+00   0.100000E+01   0.000000E+00   0.000000E+00
  85   0.140948E+01   0.644257E-24   0.190404E-25  -0.144489E-25   0.111888E-19   0.488988E-21  -0.372552E-21   0.100000E+01   0.000000E+00   0.000000E+00   0.100000E+01   0.000000E+00   0.000000E+00
  86   0.143767E+01   0.643759E-24   0.190257E-25  -0.144377E-25   0.397072E-20   0.168900E-21  -0.128276E-21   0.100000E+01   0.000000E+00   0.000000E+00   0.100000E+01   0.000000E+00   0.000000E+00
  87   0.146643E+01   0.643262E-24   0.188905E-25  -0.145330E-25   0.144500E-20   0.589557E-22  -0.452729E-22   0.100000E+01   0.000000E+00   0.000000E+00   0.100000E+01   0.000000E+00   0.000000E+00
  88   0.149576E+01   0.642765E-24   0.188759E-25  -0.145218E-25   0.539333E-21   0.214342E-22  -0.161896E-22   0.100000E+01   0.000000E+00   0.000000E+00   0.100000E+01   0.000000E+00   0.000000E+00
  89   0.152567E+01   0.642144E-24   0.189738E-25  -0.144055E-25   0.206742E-21   0.788084E-23  -0.603384E-23   0.100000E+01   0.000000E+00   0.000000E+00   0.100000E+01   0.000000E+00   0.000000E+00
  90   0.155619E+01   0.641648E-24   0.187856E-25  -0.146067E-25   0.814868E-22   0.300639E-23  -0.231211E-23   0.100000E+01   0.000000E+00   0.000000E+00   0.100000E+01   0.000000E+00   0.000000E+00
  91   0.158731E+01   0.640904E-24   0.189288E-25  -0.143856E-25   0.330942E-22   0.118061E-23  -0.895186E-24   0.100000E+01   0.000000E+00   0.000000E+00   0.100000E+01   0.000000E+00   0.000000E+00
  92   0.161906E+01   0.640285E-24   0.188031E-25  -0.144658E-25   0.139029E-22   0.478703E-24  -0.364613E-24   0.100000E+01   0.000000E+00   0.000000E+00   0.100000E+01   0.000000E+00   0.000000E+00
  93   0.165144E+01   0.639543E-24   0.187813E-25  -0.144490E-25   0.607660E-23   0.201214E-24  -0.154481E-24   0.100000E+01   0.000000E+00   0.000000E+00   0.100000E+01   0.000000E+00   0.000000E+00
  94   0.168446E+01   0.638679E-24   0.188714E-25  -0.143277E-25   0.279332E-23   0.888326E-25  -0.686677E-25   0.100000E+01   0.000000E+00   0.000000E+00   0.100000E+01   0.000000E+00   0.000000E+00
  95   0.171815E+01   0.637816E-24   0.188500E-25  -0.143044E-25   0.138029E-23   0.426911E-25  -0.325628E-25   0.100000E+01   0.000000E+00   0.000000E+00   0.100000E+01   0.000000E+00   0.000000E+00
  96   0.175252E+01   0.636953E-24   0.186927E-25  -0.144024E-25   0.778314E-24   0.232641E-25  -0.178411E-25   0.100000E+01   0.000000E+00   0.000000E+00   0.100000E+01   0.000000E+00   0.000000E+00
  97   0.178757E+01   0.635970E-24   0.186639E-25  -0.143801E-25   0.635952E-24   0.186764E-25  -0.143674E-25   0.100000E+01   0.000000E+00   0.000000E+00   0.100000E+01   0.000000E+00   0.000000E+00
  98   0.182332E+01   0.634864E-24   0.186439E-25  -0.143433E-25   0.634859E-24   0.186443E-25  -0.143427E-25   0.100000E+01   0.000000E+00   0.000000E+00   0.100000E+01   0.000000E+00   0.000000E+00
