# Thermal sigma v for some different final states
# The final states are:
# Case 1: PDG = 12
# Case 2: PDG = 15
# Case 3: PDG =  6
# Case 4: PDG = 24
#  i     Mass [GeV]      sigvmid_1     sigvperr_1     sigvmerr_1      sigvmid_2     sigvperr_2     sigvmerr_2      sigvmid_3     sigvperr_3     sigvmerr_3      sigvmid_4     sigvperr_4     sigvmerr_4, sigv in units of cm^3/s^1
   1   0.100000E+00   0.262767E-24   0.709857E-26  -0.667645E-26   0.100000E+01   0.000000E+00   0.000000E+00   0.100000E+01   0.000000E+00   0.000000E+00   0.100000E+01   0.000000E+00   0.000000E+00
   2   0.110000E+00   0.265729E-24   0.719756E-26  -0.677770E-26   0.100000E+01   0.000000E+00   0.000000E+00   0.100000E+01   0.000000E+00   0.000000E+00   0.100000E+01   0.000000E+00   0.000000E+00
   3   0.121000E+00   0.268724E-24   0.721270E-26  -0.682780E-26   0.100000E+01   0.000000E+00   0.000000E+00   0.100000E+01   0.000000E+00   0.000000E+00   0.100000E+01   0.000000E+00   0.000000E+00
   4   0.133100E+00   0.271753E-24   0.731231E-26  -0.695342E-26   0.100000E+01   0.000000E+00   0.000000E+00   0.100000E+01   0.000000E+00   0.000000E+00   0.100000E+01   0.000000E+00   0.000000E+00
   5   0.146410E+00   0.274762E-24   0.739941E-26  -0.702463E-26   0.100000E+01   0.000000E+00   0.000000E+00   0.100000E+01   0.000000E+00   0.000000E+00   0.100000E+01   0.000000E+00   0.000000E+00
   6   0.161051E+00   0.277752E-24   0.745705E-26  -0.705524E-26   0.100000E+01   0.000000E+00   0.000000E+00   0.100000E+01   0.000000E+00   0.000000E+00   0.100000E+01   0.000000E+00   0.000000E+00
   7   0.177156E+00   0.280720E-24   0.753055E-26  -0.713651E-26   0.100000E+01   0.000000E+00   0.000000E+00   0.100000E+01   0.000000E+00   0.000000E+00   0.100000E+01   0.000000E+00   0.000000E+00
   8   0.194872E+00   0.283609E-24   0.761432E-26  -0.720403E-26   0.100000E+01   0.000000E+00   0.000000E+00   0.100000E+01   0.000000E+00   0.000000E+00   0.100000E+01   0.000000E+00   0.000000E+00
   9   0.214359E+00   0.286474E-24   0.766500E-26  -0.732404E-26   0.100000E+01   0.000000E+00   0.000000E+00   0.100000E+01   0.000000E+00   0.000000E+00   0.100000E+01   0.000000E+00   0.000000E+00
  10   0.235795E+00   0.289143E-24   0.776289E-26  -0.734460E-26   0.100000E+01   0.000000E+00   0.000000E+00   0.100000E+01   0.000000E+00   0.000000E+00   0.100000E+01   0.000000E+00   0.000000E+00
  11   0.259374E+00   0.291669E-24   0.775115E-26  -0.745891E-26   0.100000E+01   0.000000E+00   0.000000E+00   0.100000E+01   0.000000E+00   0.000000E+00   0.100000E+01   0.000000E+00   0.000000E+00
  12   0.285312E+00   0.293818E-24   0.787332E-26  -0.747772E-26   0.100000E+01   0.000000E+00   0.000000E+00   0.100000E+01   0.000000E+00   0.000000E+00   0.100000E+01   0.000000E+00   0.000000E+00
  13   0.313843E+00   0.295584E-24   0.793580E-26  -0.750819E-26   0.100000E+01   0.000000E+00   0.000000E+00   0.100000E+01   0.000000E+00   0.000000E+00   0.100000E+01   0.000000E+00   0.000000E+00
  14   0.345227E+00   0.296728E-24   0.793938E-26  -0.758621E-26   0.100000E+01   0.000000E+00   0.000000E+00   0.100000E+01   0.000000E+00   0.000000E+00   0.100000E+01   0.000000E+00   0.000000E+00
  15   0.379750E+00   0.297130E-24   0.794792E-26  -0.759857E-26   0.100000E+01   0.000000E+00   0.000000E+00   0.100000E+01   0.000000E+00   0.000000E+00   0.100000E+01   0.000000E+00   0.000000E+00
  16   0.417725E+00   0.296785E-24   0.793432E-26  -0.759394E-26   0.100000E+01   0.000000E+00   0.000000E+00   0.100000E+01   0.000000E+00   0.000000E+00   0.100000E+01   0.000000E+00   0.000000E+00
  17   0.459497E+00   0.295755E-24   0.798973E-26  -0.751461E-26   0.100000E+01   0.000000E+00   0.000000E+00   0.100000E+01   0.000000E+00   0.000000E+00   0.100000E+01   0.000000E+00   0.000000E+00
  18   0.505447E+00   0.294386E-24   0.787840E-26  -0.757698E-26   0.100000E+01   0.000000E+00   0.000000E+00   0.100000E+01   0.000000E+00   0.000000E+00   0.100000E+01   0.000000E+00   0.000000E+00
  19   0.555992E+00   0.292685E-24   0.787556E-26  -0.748902E-26   0.100000E+01   0.000000E+00   0.000000E+00   0.100000E+01   0.000000E+00   0.000000E+00   0.100000E+01   0.000000E+00   0.000000E+00
  20   0.611591E+00   0.290881E-24   0.785378E-26  -0.739483E-26   0.100000E+01   0.000000E+00   0.000000E+00   0.100000E+01   0.000000E+00   0.000000E+00   0.100000E+01   0.000000E+00   0.000000E+00
  21   0.672750E+00   0.289087E-24   0.780536E-26  -0.734924E-26   0.100000E+01   0.000000E+00   0.000000E+00   0.100000E+01   0.000000E+00   0.000000E+00   0.100000E+01   0.000000E+00   0.000000E+00
  22   0.740025E+00   0.287416E-24   0.769186E-26  -0.739758E-26   0.100000E+01   0.000000E+00   0.000000E+00   0.100000E+01   0.000000E+00   0.000000E+00   0.100000E+01   0.000000E+00   0.000000E+00
  23   0.814027E+00   0.285755E-24   0.765725E-26  -0.727251E-26   0.100000E+01   0.000000E+00   0.000000E+00   0.100000E+01   0.000000E+00   0.000000E+00   0.100000E+01   0.000000E+00   0.000000E+00
  24   0.895430E+00   0.284323E-24   0.760535E-26  -0.727105E-26   0.100000E+01   0.000000E+00   0.000000E+00   0.100000E+01   0.000000E+00   0.000000E+00   0.100000E+01   0.000000E+00   0.000000E+00
  25   0.984973E+00   0.283007E-24   0.759607E-26  -0.719071E-26   0.100000E+01   0.000000E+00   0.000000E+00   0.100000E+01   0.000000E+00   0.000000E+00   0.100000E+01   0.000000E+00   0.000000E+00
  26   0.108347E+01   0.281916E-24   0.751769E-26  -0.716298E-26   0.100000E+01   0.000000E+00   0.000000E+00   0.100000E+01   0.000000E+00   0.000000E+00   0.100000E+01   0.000000E+00   0.000000E+00
  27   0.119182E+01   0.280937E-24   0.751165E-26  -0.716559E-26   0.100000E+01   0.000000E+00   0.000000E+00   0.100000E+01   0.000000E+00   0.000000E+00   0.100000E+01   0.000000E+00   0.000000E+00
  28   0.121565E+01   0.280720E-24   0.753055E-26  -0.713651E-26   0.100000E+01   0.000000E+00   0.000000E+00   0.100000E+01   0.000000E+00   0.000000E+00   0.100000E+01   0.000000E+00   0.000000E+00
  29   0.123997E+01   0.280557E-24   0.753236E-26  -0.712650E-26   0.100000E+01   0.000000E+00   0.000000E+00   0.100000E+01   0.000000E+00   0.000000E+00   0.100000E+01   0.000000E+00   0.000000E+00
  30   0.126477E+01   0.280394E-24   0.747713E-26  -0.712432E-26   0.860414E-18   0.405876E-19  -0.381710E-19   0.100000E+01   0.000000E+00   0.000000E+00   0.100000E+01   0.000000E+00   0.000000E+00
  31   0.129006E+01   0.280178E-24   0.752013E-26  -0.711882E-26   0.281925E-18   0.129773E-19  -0.121619E-19   0.100000E+01   0.000000E+00   0.000000E+00   0.100000E+01   0.000000E+00   0.000000E+00
  32   0.131586E+01   0.280015E-24   0.751782E-26  -0.711274E-26   0.946532E-19   0.421894E-20  -0.392947E-20   0.100000E+01   0.000000E+00   0.000000E+00   0.100000E+01   0.000000E+00   0.000000E+00
  33   0.134218E+01   0.279853E-24   0.745859E-26  -0.711448E-26   0.325746E-19   0.139582E-20  -0.132052E-20   0.100000E+01   0.000000E+00   0.000000E+00   0.100000E+01   0.000000E+00   0.000000E+00
  34   0.136902E+01   0.279637E-24   0.749330E-26  -0.711680E-26   0.114823E-19   0.480403E-21  -0.450025E-21   0.100000E+01   0.000000E+00   0.000000E+00   0.100000E+01   0.000000E+00   0.000000E+00
  35   0.139640E+01   0.279475E-24   0.745465E-26  -0.709901E-26   0.414878E-20   0.167737E-21  -0.157036E-21   0.100000E+01   0.000000E+00   0.000000E+00   0.100000E+01   0.000000E+00   0.000000E+00
  36   0.142433E+01   0.279259E-24   0.749751E-26  -0.709352E-26   0.153598E-20   0.599659E-22  -0.561633E-22   0.100000E+01   0.000000E+00   0.000000E+00   0.100000E+01   0.000000E+00   0.000000E+00
  37   0.145282E+01   0.279043E-24   0.749172E-26  -0.708804E-26   0.583126E-21   0.219233E-22  -0.207510E-22   0.100000E+01   0.000000E+00   0.000000E+00   0.100000E+01   0.000000E+00   0.000000E+00
  38   0.148188E+01   0.278827E-24   0.748593E-26  -0.708256E-26   0.227056E-21   0.829953E-23  -0.778102E-23   0.100000E+01   0.000000E+00   0.000000E+00   0.100000E+01   0.000000E+00   0.000000E+00
  39   0.151151E+01   0.278612E-24   0.743164E-26  -0.707709E-26   0.907646E-22   0.319710E-23  -0.302384E-23   0.100000E+01   0.000000E+00   0.000000E+00   0.100000E+01   0.000000E+00   0.000000E+00
  40   0.154174E+01   0.278343E-24   0.743275E-26  -0.708424E-26   0.372993E-22   0.127149E-23  -0.120531E-23   0.100000E+01   0.000000E+00   0.000000E+00   0.100000E+01   0.000000E+00   0.000000E+00
  41   0.157258E+01   0.278074E-24   0.746570E-26  -0.706343E-26   0.157819E-22   0.518800E-24  -0.489146E-24   0.100000E+01   0.000000E+00   0.000000E+00   0.100000E+01   0.000000E+00   0.000000E+00
  42   0.160403E+01   0.277806E-24   0.738274E-26  -0.710439E-26   0.689786E-23   0.218348E-24  -0.207172E-24   0.100000E+01   0.000000E+00   0.000000E+00   0.100000E+01   0.000000E+00   0.000000E+00
  43   0.163611E+01   0.277430E-24   0.744841E-26  -0.704707E-26   0.312824E-23   0.955451E-25  -0.909683E-25   0.100000E+01   0.000000E+00   0.000000E+00   0.100000E+01   0.000000E+00   0.000000E+00
  44   0.166883E+01   0.277109E-24   0.736627E-26  -0.708461E-26   0.148345E-23   0.439725E-25  -0.415918E-25   0.100000E+01   0.000000E+00   0.000000E+00   0.100000E+01   0.000000E+00   0.000000E+00
  45   0.170221E+01   0.276680E-24   0.742829E-26  -0.702803E-26   0.746897E-24   0.212762E-25  -0.202199E-25   0.100000E+01   0.000000E+00   0.000000E+00   0.100000E+01   0.000000E+00   0.000000E+00
  46   0.173625E+01   0.276306E-24   0.734290E-26  -0.706605E-26   0.412790E-24   0.113322E-25  -0.108254E-25   0.100000E+01   0.000000E+00   0.000000E+00   0.100000E+01   0.000000E+00   0.000000E+00
  47   0.177098E+01   0.275826E-24   0.740536E-26  -0.700633E-26   0.280225E-24   0.752371E-26  -0.711783E-26   0.100000E+01   0.000000E+00   0.000000E+00   0.100000E+01   0.000000E+00   0.000000E+00
  48   0.180640E+01   0.275347E-24   0.737835E-26  -0.700763E-26   0.275352E-24   0.738757E-26  -0.699911E-26   0.100000E+01   0.000000E+00   0.000000E+00   0.100000E+01   0.000000E+00   0.000000E+00
  49   0.184253E+01   0.274815E-24   0.737620E-26  -0.698258E-26   0.274832E-24   0.734842E-26  -0.703127E-26   0.100000E+01   0.000000E+00   0.000000E+00   0.100000E+01   0.000000E+00   0.000000E+00
  50   0.187938E+01   0.274285E-24   0.728512E-26  -0.701821E-26   0.274227E-24   0.735738E-26  -0.697051E-26   0.100000E+01   0.000000E+00   0.000000E+00   0.100000E+01   0.000000E+00   0.000000E+00
  51   0.191696E+01   0.273650E-24   0.733287E-26  -0.696443E-26   0.273655E-24   0.734202E-26  -0.695597E-26   0.100000E+01   0.000000E+00   0.000000E+00   0.100000E+01   0.000000E+00   0.000000E+00
  52   0.195530E+01   0.273016E-24   0.729885E-26  -0.698574E-26   0.273010E-24   0.729969E-26  -0.698463E-26   0.100000E+01   0.000000E+00   0.000000E+00   0.100000E+01   0.000000E+00   0.000000E+00
  53   0.199441E+01   0.272331E-24   0.728659E-26  -0.696247E-26   0.272331E-24   0.728154E-26  -0.696726E-26   0.100000E+01   0.000000E+00   0.000000E+00   0.100000E+01   0.000000E+00   0.000000E+00
  54   0.203430E+01   0.271595E-24   0.726691E-26  -0.694365E-26   0.271595E-24   0.726186E-26  -0.694843E-26   0.100000E+01   0.000000E+00   0.000000E+00   0.100000E+01   0.000000E+00   0.000000E+00
  55   0.207498E+01   0.270809E-24   0.724387E-26  -0.692546E-26   0.270807E-24   0.724079E-26  -0.692827E-26   0.100000E+01   0.000000E+00   0.000000E+00   0.100000E+01   0.000000E+00   0.000000E+00
  56   0.211648E+01   0.269973E-24   0.722504E-26  -0.694862E-26   0.269972E-24   0.722200E-26  -0.695148E-26   0.100000E+01   0.000000E+00   0.000000E+00   0.100000E+01   0.000000E+00   0.000000E+00
  57   0.215881E+01   0.269035E-24   0.719344E-26  -0.686204E-26   0.269025E-24   0.723991E-26  -0.688270E-26   0.100000E+01   0.000000E+00   0.000000E+00   0.100000E+01   0.000000E+00   0.000000E+00
  58   0.237469E+01   0.262970E-24   0.712908E-26  -0.676839E-26   0.262959E-24   0.712927E-26  -0.676765E-26   0.100000E+01   0.000000E+00   0.000000E+00   0.100000E+01   0.000000E+00   0.000000E+00
  59   0.261216E+01   0.252171E-24   0.688882E-26  -0.657181E-26   0.252138E-24   0.691804E-26  -0.653603E-26   0.100000E+01   0.000000E+00   0.000000E+00   0.100000E+01   0.000000E+00   0.000000E+00
  60   0.287338E+01   0.235498E-24   0.654996E-26  -0.621492E-26   0.235482E-24   0.654805E-26  -0.618323E-26   0.100000E+01   0.000000E+00   0.000000E+00   0.100000E+01   0.000000E+00   0.000000E+00
  61   0.316072E+01   0.214305E-24   0.601090E-26  -0.572625E-26   0.214284E-24   0.602746E-26  -0.569431E-26   0.100000E+01   0.000000E+00   0.000000E+00   0.100000E+01   0.000000E+00   0.000000E+00
  62   0.347679E+01   0.193555E-24   0.540400E-26  -0.514982E-26   0.193543E-24   0.541430E-26  -0.513944E-26   0.100000E+01   0.000000E+00   0.000000E+00   0.100000E+01   0.000000E+00   0.000000E+00
  63   0.382447E+01   0.178191E-24   0.488997E-26  -0.470644E-26   0.178188E-24   0.489340E-26  -0.467826E-26   0.100000E+01   0.000000E+00   0.000000E+00   0.100000E+01   0.000000E+00   0.000000E+00
  64   0.420692E+01   0.168382E-24   0.459311E-26  -0.436043E-26   0.168381E-24   0.459323E-26  -0.436024E-26   0.100000E+01   0.000000E+00   0.000000E+00   0.100000E+01   0.000000E+00   0.000000E+00
  65   0.462761E+01   0.161998E-24   0.439296E-26  -0.416840E-26   0.161993E-24   0.439190E-26  -0.416913E-26   0.100000E+01   0.000000E+00   0.000000E+00   0.100000E+01   0.000000E+00   0.000000E+00
  66   0.509037E+01   0.157492E-24   0.424337E-26  -0.405244E-26   0.157494E-24   0.424356E-26  -0.405235E-26   0.100000E+01   0.000000E+00   0.000000E+00   0.100000E+01   0.000000E+00   0.000000E+00
  67   0.559940E+01   0.154120E-24   0.412572E-26  -0.396568E-26   0.154121E-24   0.412287E-26  -0.396843E-26   0.100000E+01   0.000000E+00   0.000000E+00   0.100000E+01   0.000000E+00   0.000000E+00
  68   0.615934E+01   0.151550E-24   0.408016E-26  -0.387564E-26   0.151548E-24   0.408137E-26  -0.387438E-26   0.100000E+01   0.000000E+00   0.000000E+00   0.100000E+01   0.000000E+00   0.000000E+00
  69   0.677528E+01   0.149572E-24   0.401460E-26  -0.380036E-26   0.149581E-24   0.401319E-26  -0.380217E-26   0.100000E+01   0.000000E+00   0.000000E+00   0.100000E+01   0.000000E+00   0.000000E+00
  70   0.745281E+01   0.148077E-24   0.397446E-26  -0.376237E-26   0.148086E-24   0.397307E-26  -0.376416E-26   0.100000E+01   0.000000E+00   0.000000E+00   0.100000E+01   0.000000E+00   0.000000E+00
  71   0.819809E+01   0.146936E-24   0.391828E-26  -0.373340E-26   0.146923E-24   0.391631E-26  -0.373461E-26   0.100000E+01   0.000000E+00   0.000000E+00   0.100000E+01   0.000000E+00   0.000000E+00
  72   0.901790E+01   0.146031E-24   0.386870E-26  -0.371038E-26   0.146017E-24   0.389495E-26  -0.370888E-26   0.100000E+01   0.000000E+00   0.000000E+00   0.100000E+01   0.000000E+00   0.000000E+00
  73   0.991969E+01   0.145299E-24   0.387247E-26  -0.369382E-26   0.145284E-24   0.388462E-26  -0.366895E-26   0.100000E+01   0.000000E+00   0.000000E+00   0.100000E+01   0.000000E+00   0.000000E+00
  74   0.109117E+02   0.144738E-24   0.386527E-26  -0.365969E-26   0.144731E-24   0.386983E-26  -0.365498E-26   0.100000E+01   0.000000E+00   0.000000E+00   0.100000E+01   0.000000E+00   0.000000E+00
  75   0.120028E+02   0.144319E-24   0.383639E-26  -0.364208E-26   0.144343E-24   0.382425E-26  -0.366725E-26   0.100000E+01   0.000000E+00   0.000000E+00   0.100000E+01   0.000000E+00   0.000000E+00
  76   0.132031E+02   0.144041E-24   0.382898E-26  -0.363505E-26   0.144040E-24   0.382909E-26  -0.363490E-26   0.100000E+01   0.000000E+00   0.000000E+00   0.100000E+01   0.000000E+00   0.000000E+00
  77   0.145234E+02   0.143874E-24   0.382455E-26  -0.363084E-26   0.143897E-24   0.381244E-26  -0.365592E-26   0.100000E+01   0.000000E+00   0.000000E+00   0.100000E+01   0.000000E+00   0.000000E+00
  78   0.159758E+02   0.143818E-24   0.382307E-26  -0.362944E-26   0.143817E-24   0.382317E-26  -0.362929E-26   0.100000E+01   0.000000E+00   0.000000E+00   0.100000E+01   0.000000E+00   0.000000E+00
  79   0.175733E+02   0.143846E-24   0.380450E-26  -0.366091E-26   0.143826E-24   0.382341E-26  -0.362951E-26   0.100000E+01   0.000000E+00   0.000000E+00   0.100000E+01   0.000000E+00   0.000000E+00
  80   0.193307E+02   0.143902E-24   0.382610E-26  -0.360879E-26   0.143927E-24   0.381323E-26  -0.365667E-26   0.100000E+01   0.000000E+00   0.000000E+00   0.100000E+01   0.000000E+00   0.000000E+00
  81   0.212637E+02   0.144041E-24   0.382898E-26  -0.363505E-26   0.144040E-24   0.382909E-26  -0.363490E-26   0.100000E+01   0.000000E+00   0.000000E+00   0.100000E+01   0.000000E+00   0.000000E+00
  82   0.233901E+02   0.144208E-24   0.383343E-26  -0.363927E-26   0.144207E-24   0.383353E-26  -0.363912E-26   0.100000E+01   0.000000E+00   0.000000E+00   0.100000E+01   0.000000E+00   0.000000E+00
  83   0.257291E+02   0.144431E-24   0.381426E-26  -0.364490E-26   0.144431E-24   0.381346E-26  -0.364565E-26   0.100000E+01   0.000000E+00   0.000000E+00   0.100000E+01   0.000000E+00   0.000000E+00
  84   0.283020E+02   0.144682E-24   0.382172E-26  -0.362837E-26   0.144694E-24   0.382133E-26  -0.365141E-26   0.100000E+01   0.000000E+00   0.000000E+00   0.100000E+01   0.000000E+00   0.000000E+00
  85   0.311322E+02   0.145018E-24   0.382871E-26  -0.366073E-26   0.145017E-24   0.382894E-26  -0.366045E-26   0.100000E+01   0.000000E+00   0.000000E+00   0.100000E+01   0.000000E+00   0.000000E+00
  86   0.342454E+02   0.145411E-24   0.383078E-26  -0.366000E-26   0.145388E-24   0.384061E-26  -0.364582E-26   0.100000E+01   0.000000E+00   0.000000E+00   0.100000E+01   0.000000E+00   0.000000E+00
  87   0.376700E+02   0.145861E-24   0.383804E-26  -0.367202E-26   0.145859E-24   0.385397E-26  -0.365673E-26   0.100000E+01   0.000000E+00   0.000000E+00   0.100000E+01   0.000000E+00   0.000000E+00
  88   0.414370E+02   0.146398E-24   0.386810E-26  -0.367038E-26   0.146386E-24   0.386697E-26  -0.367084E-26   0.100000E+01   0.000000E+00   0.000000E+00   0.100000E+01   0.000000E+00   0.000000E+00
  89   0.455807E+02   0.146993E-24   0.387636E-26  -0.369240E-26   0.146999E-24   0.388409E-26  -0.368532E-26   0.100000E+01   0.000000E+00   0.000000E+00   0.100000E+01   0.000000E+00   0.000000E+00
  90   0.501388E+02   0.147705E-24   0.387507E-26  -0.372752E-26   0.147691E-24   0.390239E-26  -0.370267E-26   0.100000E+01   0.000000E+00   0.000000E+00   0.100000E+01   0.000000E+00   0.000000E+00
  91   0.551526E+02   0.148449E-24   0.392229E-26  -0.372180E-26   0.148462E-24   0.389696E-26  -0.372200E-26   0.100000E+01   0.000000E+00   0.000000E+00   0.100000E+01   0.000000E+00   0.000000E+00
  92   0.562557E+02   0.148621E-24   0.392684E-26  -0.372612E-26   0.148609E-24   0.392569E-26  -0.372659E-26   0.100000E+01   0.000000E+00   0.000000E+00   0.100000E+01   0.000000E+00   0.000000E+00
  93   0.573808E+02   0.148794E-24   0.393140E-26  -0.373044E-26   0.148781E-24   0.393025E-26  -0.373091E-26   0.100000E+01   0.000000E+00   0.000000E+00   0.100000E+01   0.000000E+00   0.000000E+00
  94   0.585284E+02   0.148966E-24   0.393596E-26  -0.373477E-26   0.148954E-24   0.393481E-26  -0.373524E-26   0.100000E+01   0.000000E+00   0.000000E+00   0.653180E-18   0.296081E-19  -0.275110E-19
  95   0.596990E+02   0.149139E-24   0.394052E-26  -0.373910E-26   0.149127E-24   0.393937E-26  -0.373957E-26   0.100000E+01   0.000000E+00   0.000000E+00   0.195895E-18   0.860274E-20  -0.799630E-20
  96   0.608930E+02   0.149312E-24   0.394509E-26  -0.374344E-26   0.149300E-24   0.394202E-26  -0.371926E-26   0.100000E+01   0.000000E+00   0.000000E+00   0.603384E-19   0.256229E-20  -0.240280E-20
  97   0.621108E+02   0.149485E-24   0.394967E-26  -0.374778E-26   0.149498E-24   0.395014E-26  -0.374798E-26   0.100000E+01   0.000000E+00   0.000000E+00   0.190800E-19   0.778763E-21  -0.736179E-21
  98   0.633530E+02   0.149688E-24   0.392792E-26  -0.375389E-26   0.149688E-24   0.392916E-26  -0.375275E-26   0.100000E+01   0.000000E+00   0.000000E+00   0.619408E-20   0.245176E-21  -0.230527E-21
